SpectraSuite Data File
++++++++++++++++++++++++++++++++++++
Date: Fri Feb 01 13:32:36 GMT-05:00 2013
User: glue
Dark Spectrum Present: No
Reference Spectrum Present: No
Number of Sampled Component Spectra: 1
Spectrometers: USB2G46053
Integration Time (usec): 100000 (USB2G46053)
Spectra Averaged: 50 (USB2G46053)
Boxcar Smoothing: 10 (USB2G46053)
Correct for Electrical Dark: No (USB2G46053)
Strobe/Lamp Enabled: Yes (USB2G46053)
Correct for Detector Non-linearity: No (USB2G46053)
Correct for Stray Light: No (USB2G46053)
Number of Pixels in Processed Spectrum: 651
>>>>>Begin Processed Spectral Data<<<<<
200.00	327.53
201.00	336.56
202.00	341.57
203.00	346.77
204.00	366.91
205.00	377.40
206.00	389.90
207.00	409.20
208.00	415.06
209.00	431.10
210.00	458.88
211.00	474.87
212.00	492.61
213.00	510.75
214.00	530.21
215.00	550.45
216.00	570.38
217.00	592.22
218.00	614.66
219.00	638.46
220.00	661.24
221.00	687.04
222.00	713.80
223.00	740.02
224.00	766.67
225.00	793.86
226.00	821.26
227.00	846.95
228.00	874.67
229.00	900.74
230.00	928.85
231.00	956.64
232.00	983.16
233.00	1008.91
234.00	1035.78
235.00	1062.43
236.00	1088.10
237.00	1113.26
238.00	1139.11
239.00	1162.86
240.00	1187.03
241.00	1212.74
242.00	1238.64
243.00	1258.80
244.00	1282.97
245.00	1308.37
246.00	1329.84
247.00	1350.74
248.00	1373.75
249.00	1395.11
250.00	1414.76
251.00	1433.73
252.00	1453.66
253.00	1472.56
254.00	1489.48
255.00	1503.82
256.00	1517.29
257.00	1530.79
258.00	1544.02
259.00	1555.26
260.00	1567.91
261.00	1576.88
262.00	1585.81
263.00	1592.02
264.00	1600.39
265.00	1604.65
266.00	1606.62
267.00	1612.02
268.00	1616.82
269.00	1619.02
270.00	1619.48
271.00	1620.27
272.00	1619.75
273.00	1619.45
274.00	1619.98
275.00	1620.96
276.00	1622.33
277.00	1623.48
278.00	1624.89
279.00	1628.41
280.00	1629.99
281.00	1630.31
282.00	1632.40
283.00	1632.95
284.00	1633.28
285.00	1637.12
286.00	1638.80
287.00	1642.75
288.00	1645.85
289.00	1650.05
290.00	1655.79
291.00	1662.48
292.00	1671.27
293.00	1681.03
294.00	1689.71
295.00	1700.18
296.00	1711.27
297.00	1722.41
298.00	1734.43
299.00	1746.01
300.00	1755.82
301.00	1767.72
302.00	1780.40
303.00	1792.08
304.00	1805.08
305.00	1817.00
306.00	1827.37
307.00	1838.99
308.00	1849.86
309.00	1859.03
310.00	1868.01
311.00	1876.19
312.00	1883.41
313.00	1889.02
314.00	1893.69
315.00	1897.84
316.00	1898.70
317.00	1898.96
318.00	1898.98
319.00	1897.88
320.00	1897.07
321.00	1897.65
322.00	1895.80
323.00	1893.89
324.00	1892.77
325.00	1890.39
326.00	1889.10
327.00	1887.63
328.00	1886.11
329.00	1883.51
330.00	1880.20
331.00	1872.92
332.00	1862.72
333.00	1853.85
334.00	1852.54
335.00	1855.10
336.00	1857.83
337.00	1860.92
338.00	1862.16
339.00	1863.22
340.00	1863.61
341.00	1863.65
342.00	1862.74
343.00	1863.13
344.00	1863.18
345.00	1862.91
346.00	1862.60
347.00	1861.36
348.00	1860.10
349.00	1858.63
350.00	1856.51
351.00	1856.47
352.00	1860.11
353.00	1866.57
354.00	1872.47
355.00	1872.00
356.00	1868.23
357.00	1865.46
358.00	1865.22
359.00	1867.48
360.00	1871.04
361.00	1875.68
362.00	1881.15
363.00	1887.30
364.00	1894.03
365.00	1902.85
366.00	1913.11
367.00	1924.06
368.00	1936.51
369.00	1951.86
370.00	1968.51
371.00	1985.28
372.00	2000.22
373.00	2014.91
374.00	2030.41
375.00	2045.47
376.00	2060.37
377.00	2075.54
378.00	2092.10
379.00	2108.11
380.00	2124.27
381.00	2138.40
382.00	2155.55
383.00	2175.89
384.00	2199.00
385.00	2217.04
386.00	2234.16
387.00	2250.65
388.00	2266.48
389.00	2289.55
390.00	2307.93
391.00	2321.18
392.00	2335.12
393.00	2346.15
394.00	2358.95
395.00	2369.61
396.00	2382.54
397.00	2393.31
398.00	2400.85
399.00	2407.87
400.00	2413.25
401.00	2417.15
402.00	2420.57
403.00	2423.74
404.00	2423.63
405.00	2421.96
406.00	2420.38
407.00	2420.50
408.00	2418.55
409.00	2416.99
410.00	2407.14
411.00	2400.56
412.00	2402.79
413.00	2407.08
414.00	2412.67
415.00	2415.50
416.00	2418.25
417.00	2415.02
418.00	2412.27
419.00	2409.45
420.00	2409.25
421.00	2413.55
422.00	2416.52
423.00	2414.62
424.00	2406.19
425.00	2394.73
426.00	2381.38
427.00	2374.56
428.00	2365.76
429.00	2357.30
430.00	2348.62
431.00	2336.00
432.00	2324.32
433.00	2309.13
434.00	2291.76
435.00	2278.98
436.00	2267.04
437.00	2259.20
438.00	2254.87
439.00	2251.76
440.00	2247.65
441.00	2238.19
442.00	2225.50
443.00	2212.41
444.00	2203.09
445.00	2194.71
446.00	2187.67
447.00	2178.43
448.00	2165.83
449.00	2152.00
450.00	2136.95
451.00	2122.88
452.00	2113.11
453.00	2098.46
454.00	2079.55
455.00	2061.48
456.00	2046.84
457.00	2037.93
458.00	2019.48
459.00	2002.10
460.00	1983.78
461.00	1967.06
462.00	1951.45
463.00	1936.32
464.00	1926.13
465.00	1921.24
466.00	1923.39
467.00	1927.24
468.00	1933.04
469.00	1941.25
470.00	1948.25
471.00	1961.33
472.00	1976.49
473.00	1994.62
474.00	2014.30
475.00	2040.12
476.00	2069.75
477.00	2103.30
478.00	2130.67
479.00	2160.17
480.00	2184.44
481.00	2208.95
482.00	2234.20
483.00	2258.34
484.00	2281.64
485.00	2303.63
486.00	2323.33
487.00	2342.63
488.00	2362.35
489.00	2375.71
490.00	2385.80
491.00	2396.27
492.00	2403.16
493.00	2409.10
494.00	2411.06
495.00	2414.42
496.00	2413.30
497.00	2404.63
498.00	2386.06
499.00	2367.13
500.00	2351.09
501.00	2338.88
502.00	2328.18
503.00	2316.73
504.00	2306.29
505.00	2294.19
506.00	2278.77
507.00	2263.21
508.00	2247.08
509.00	2227.47
510.00	2217.09
511.00	2208.00
512.00	2199.12
513.00	2191.89
514.00	2183.16
515.00	2176.79
516.00	2170.65
517.00	2166.67
518.00	2166.42
519.00	2166.68
520.00	2170.32
521.00	2176.09
522.00	2181.46
523.00	2185.50
524.00	2191.39
525.00	2198.62
526.00	2207.94
527.00	2217.79
528.00	2225.27
529.00	2231.71
530.00	2241.58
531.00	2247.28
532.00	2251.48
533.00	2256.10
534.00	2257.94
535.00	2260.03
536.00	2261.39
537.00	2260.93
538.00	2260.11
539.00	2262.10
540.00	2260.74
541.00	2252.82
542.00	2243.76
543.00	2239.81
544.00	2237.47
545.00	2234.49
546.00	2229.45
547.00	2225.27
548.00	2218.10
549.00	2211.46
550.00	2200.38
551.00	2191.63
552.00	2189.12
553.00	2189.19
554.00	2189.58
555.00	2190.78
556.00	2188.69
557.00	2182.80
558.00	2179.92
559.00	2180.55
560.00	2183.27
561.00	2196.26
562.00	2219.20
563.00	2250.35
564.00	2274.02
565.00	2302.22
566.00	2337.19
567.00	2364.51
568.00	2394.66
569.00	2451.65
570.00	2494.24
571.00	2534.18
572.00	2582.69
573.00	2641.56
574.00	2677.01
575.00	2698.94
576.00	2740.64
577.00	2782.55
578.00	2820.52
579.00	2858.33
580.00	2881.98
581.00	2896.31
582.00	2899.60
583.00	2900.64
584.00	2914.37
585.00	2922.98
586.00	2916.62
587.00	2896.48
588.00	2887.03
589.00	2879.83
590.00	2866.10
591.00	2871.27
592.00	2867.91
593.00	2840.16
594.00	2794.65
595.00	2779.23
596.00	2776.60
597.00	2761.66
598.00	2752.25
599.00	2744.82
600.00	2725.66
601.00	2715.91
602.00	2708.57
603.00	2709.03
604.00	2710.59
605.00	2694.61
606.00	2698.53
607.00	2703.11
608.00	2709.65
609.00	2713.78
610.00	2708.98
611.00	2691.44
612.00	2665.87
613.00	2661.64
614.00	2666.43
615.00	2674.50
616.00	2671.95
617.00	2667.73
618.00	2657.67
619.00	2641.31
620.00	2630.46
621.00	2627.80
622.00	2623.66
623.00	2617.67
624.00	2608.02
625.00	2593.37
626.00	2575.70
627.00	2549.62
628.00	2531.50
629.00	2513.90
630.00	2497.94
631.00	2484.63
632.00	2467.72
633.00	2455.52
634.00	2435.07
635.00	2417.74
636.00	2398.82
637.00	2382.03
638.00	2367.84
639.00	2357.01
640.00	2351.41
641.00	2341.62
642.00	2332.98
643.00	2326.42
644.00	2324.05
645.00	2319.78
646.00	2323.06
647.00	2385.62
648.00	2397.36
649.00	2398.63
650.00	2398.51
651.00	2393.87
652.00	2388.53
653.00	2383.82
654.00	2380.21
655.00	2377.41
656.00	2374.47
657.00	2369.70
658.00	2366.11
659.00	2362.39
660.00	2355.28
661.00	2346.28
662.00	2343.07
663.00	2343.34
664.00	2340.84
665.00	2335.46
666.00	2332.20
667.00	2323.19
668.00	2255.52
669.00	2237.13
670.00	2230.73
671.00	2230.23
672.00	2231.69
673.00	2233.01
674.00	2232.75
675.00	2235.79
676.00	2241.33
677.00	2244.32
678.00	2248.78
679.00	2251.72
680.00	2255.03
681.00	2256.98
682.00	2262.08
683.00	2261.99
684.00	2259.72
685.00	2258.56
686.00	2260.90
687.00	2263.16
688.00	2270.09
689.00	2272.38
690.00	2270.97
691.00	2267.84
692.00	2264.97
693.00	2266.18
694.00	2266.39
695.00	2267.88
696.00	2264.15
697.00	2259.38
698.00	2262.19
699.00	2264.85
700.00	2266.24
701.00	2267.15
702.00	2266.98
703.00	2264.48
704.00	2266.29
705.00	2267.60
706.00	2270.72
707.00	2268.43
708.00	2267.25
709.00	2262.40
710.00	2260.75
711.00	2259.82
712.00	2259.52
713.00	2259.22
714.00	2255.38
715.00	2251.61
716.00	2249.97
717.00	2249.61
718.00	2246.16
719.00	2238.69
720.00	2231.70
721.00	2230.50
722.00	2230.08
723.00	2229.77
724.00	2228.16
725.00	2223.75
726.00	2219.84
727.00	2214.67
728.00	2211.69
729.00	2208.23
730.00	2203.10
731.00	2194.57
732.00	2185.76
733.00	2178.04
734.00	2168.70
735.00	2158.24
736.00	2149.35
737.00	2138.34
738.00	2126.51
739.00	2115.15
740.00	2105.29
741.00	2096.46
742.00	2083.48
743.00	2068.69
744.00	2055.16
745.00	2039.94
746.00	2026.29
747.00	2016.09
748.00	2010.15
749.00	2000.73
750.00	1990.71
751.00	1982.37
752.00	1978.17
753.00	1977.78
754.00	1978.30
755.00	1987.29
756.00	1996.51
757.00	2003.89
758.00	2015.98
759.00	2033.56
760.00	2050.25
761.00	2067.00
762.00	2083.39
763.00	2100.75
764.00	2118.00
765.00	2134.54
766.00	2152.28
767.00	2168.28
768.00	2179.02
769.00	2187.07
770.00	2197.48
771.00	2210.38
772.00	2218.98
773.00	2226.38
774.00	2228.98
775.00	2228.10
776.00	2221.29
777.00	2212.80
778.00	2206.42
779.00	2195.91
780.00	2177.41
781.00	2159.89
782.00	2138.35
783.00	2117.07
784.00	2101.34
785.00	2082.23
786.00	2059.56
787.00	2036.02
788.00	2013.22
789.00	1991.03
790.00	1967.28
791.00	1945.33
792.00	1920.62
793.00	1897.68
794.00	1875.62
795.00	1855.91
796.00	1840.90
797.00	1822.92
798.00	1806.74
799.00	1788.43
800.00	1769.74
801.00	1754.75
802.00	1738.28
803.00	1724.22
804.00	1709.61
805.00	1687.80
806.00	1670.85
807.00	1658.16
808.00	1645.23
809.00	1632.06
810.00	1621.91
811.00	1610.90
812.00	1599.55
813.00	1588.67
814.00	1576.87
815.00	1566.15
816.00	1556.43
817.00	1544.65
818.00	1531.53
819.00	1518.47
820.00	1505.82
821.00	1492.24
822.00	1479.04
823.00	1466.79
824.00	1452.89
825.00	1438.67
826.00	1425.48
827.00	1412.22
828.00	1398.06
829.00	1385.25
830.00	1372.73
831.00	1357.40
832.00	1344.07
833.00	1331.44
834.00	1318.68
835.00	1306.47
836.00	1293.76
837.00	1280.09
838.00	1264.99
839.00	1252.95
840.00	1241.48
841.00	1226.38
842.00	1218.35
843.00	1209.01
844.00	1199.42
845.00	1190.87
846.00	1179.27
847.00	1172.63
848.00	1160.45
849.00	1148.43
850.00	1134.93
>>>>>End Processed Spectral Data<<<<<
