SpectraSuite Data File
++++++++++++++++++++++++++++++++++++
Date: Fri Feb 01 13:32:57 GMT-05:00 2013
User: glue
Dark Spectrum Present: No
Reference Spectrum Present: No
Number of Sampled Component Spectra: 1
Spectrometers: USB2G46053
Integration Time (usec): 100000 (USB2G46053)
Spectra Averaged: 50 (USB2G46053)
Boxcar Smoothing: 10 (USB2G46053)
Correct for Electrical Dark: No (USB2G46053)
Strobe/Lamp Enabled: Yes (USB2G46053)
Correct for Detector Non-linearity: No (USB2G46053)
Correct for Stray Light: No (USB2G46053)
Number of Pixels in Processed Spectrum: 651
>>>>>Begin Processed Spectral Data<<<<<
200.00	251.55
201.00	253.37
202.00	255.42
203.00	257.49
204.00	263.22
205.00	266.61
206.00	270.69
207.00	275.47
208.00	279.49
209.00	284.28
210.00	295.51
211.00	301.23
212.00	307.66
213.00	314.22
214.00	321.27
215.00	328.77
216.00	336.23
217.00	344.38
218.00	352.80
219.00	361.71
220.00	370.32
221.00	380.04
222.00	390.10
223.00	400.00
224.00	410.09
225.00	420.42
226.00	430.82
227.00	440.54
228.00	451.10
229.00	460.98
230.00	471.62
231.00	482.15
232.00	492.17
233.00	502.00
234.00	512.29
235.00	522.35
236.00	531.98
237.00	541.41
238.00	551.15
239.00	560.15
240.00	569.35
241.00	579.03
242.00	588.79
243.00	596.54
244.00	605.91
245.00	615.64
246.00	624.16
247.00	632.41
248.00	641.69
249.00	650.39
250.00	658.68
251.00	666.84
252.00	675.35
253.00	683.69
254.00	691.34
255.00	698.23
256.00	705.11
257.00	712.16
258.00	719.29
259.00	725.91
260.00	733.34
261.00	739.43
262.00	745.94
263.00	751.54
264.00	757.98
265.00	763.18
266.00	767.66
267.00	773.47
268.00	779.33
269.00	784.08
270.00	788.44
271.00	792.86
272.00	796.77
273.00	801.10
274.00	805.74
275.00	810.63
276.00	815.61
277.00	820.51
278.00	825.78
279.00	831.88
280.00	837.15
281.00	841.71
282.00	846.99
283.00	851.38
284.00	856.02
285.00	862.03
286.00	866.94
287.00	872.92
288.00	878.61
289.00	884.68
290.00	891.57
291.00	898.63
292.00	906.60
293.00	915.16
294.00	922.97
295.00	931.80
296.00	940.76
297.00	949.71
298.00	959.03
299.00	968.24
300.00	976.46
301.00	985.68
302.00	995.41
303.00	1004.60
304.00	1014.51
305.00	1023.77
306.00	1032.34
307.00	1041.42
308.00	1050.08
309.00	1057.81
310.00	1065.44
311.00	1072.55
312.00	1079.46
313.00	1085.31
314.00	1090.60
315.00	1095.67
316.00	1098.97
317.00	1102.05
318.00	1104.84
319.00	1107.00
320.00	1109.08
321.00	1111.96
322.00	1113.52
323.00	1114.93
324.00	1116.82
325.00	1117.90
326.00	1119.50
327.00	1120.96
328.00	1122.19
329.00	1122.67
330.00	1122.69
331.00	1120.51
332.00	1116.51
333.00	1113.21
334.00	1114.12
335.00	1117.14
336.00	1120.18
337.00	1123.43
338.00	1125.42
339.00	1127.25
340.00	1128.81
341.00	1129.94
342.00	1130.43
343.00	1131.81
344.00	1132.88
345.00	1133.63
346.00	1134.51
347.00	1134.62
348.00	1134.76
349.00	1134.71
350.00	1134.45
351.00	1135.27
352.00	1137.98
353.00	1142.46
354.00	1146.45
355.00	1147.03
356.00	1145.63
357.00	1144.91
358.00	1145.46
359.00	1147.55
360.00	1150.45
361.00	1153.81
362.00	1157.92
363.00	1162.58
364.00	1167.29
365.00	1173.43
366.00	1180.55
367.00	1187.89
368.00	1196.34
369.00	1206.38
370.00	1217.30
371.00	1228.28
372.00	1238.14
373.00	1248.09
374.00	1258.43
375.00	1268.57
376.00	1278.72
377.00	1289.13
378.00	1300.30
379.00	1311.23
380.00	1322.28
381.00	1332.03
382.00	1343.78
383.00	1357.50
384.00	1373.19
385.00	1385.74
386.00	1397.79
387.00	1409.23
388.00	1420.49
389.00	1436.23
390.00	1449.07
391.00	1458.70
392.00	1468.92
393.00	1477.38
394.00	1486.84
395.00	1495.09
396.00	1504.59
397.00	1512.67
398.00	1518.74
399.00	1524.59
400.00	1529.67
401.00	1533.65
402.00	1537.38
403.00	1541.00
404.00	1542.44
405.00	1542.96
406.00	1543.47
407.00	1544.82
408.00	1545.09
409.00	1545.33
410.00	1540.43
411.00	1537.79
412.00	1540.65
413.00	1544.63
414.00	1549.26
415.00	1552.13
416.00	1554.51
417.00	1553.41
418.00	1552.64
419.00	1551.95
420.00	1552.72
421.00	1556.10
422.00	1558.79
423.00	1558.29
424.00	1553.62
425.00	1547.09
426.00	1539.02
427.00	1535.24
428.00	1530.29
429.00	1525.14
430.00	1520.21
431.00	1512.57
432.00	1505.37
433.00	1495.97
434.00	1485.18
435.00	1477.19
436.00	1469.67
437.00	1465.03
438.00	1462.37
439.00	1460.45
440.00	1457.77
441.00	1451.71
442.00	1443.49
443.00	1434.83
444.00	1428.79
445.00	1423.10
446.00	1418.19
447.00	1412.04
448.00	1403.60
449.00	1394.16
450.00	1384.30
451.00	1374.70
452.00	1367.98
453.00	1358.10
454.00	1345.57
455.00	1333.52
456.00	1323.46
457.00	1316.75
458.00	1304.04
459.00	1291.80
460.00	1278.92
461.00	1266.88
462.00	1255.56
463.00	1244.30
464.00	1236.23
465.00	1231.02
466.00	1230.06
467.00	1229.98
468.00	1230.88
469.00	1233.08
470.00	1234.66
471.00	1239.55
472.00	1245.49
473.00	1252.76
474.00	1260.84
475.00	1272.29
476.00	1285.65
477.00	1300.72
478.00	1312.08
479.00	1324.48
480.00	1333.60
481.00	1342.69
482.00	1351.93
483.00	1360.31
484.00	1367.92
485.00	1374.15
486.00	1379.00
487.00	1383.18
488.00	1387.08
489.00	1387.49
490.00	1385.70
491.00	1384.06
492.00	1380.12
493.00	1375.14
494.00	1367.83
495.00	1361.19
496.00	1351.99
497.00	1338.74
498.00	1319.92
499.00	1300.83
500.00	1283.82
501.00	1269.31
502.00	1255.36
503.00	1241.57
504.00	1228.34
505.00	1214.78
506.00	1199.80
507.00	1185.08
508.00	1169.89
509.00	1153.53
510.00	1141.98
511.00	1131.75
512.00	1122.03
513.00	1113.61
514.00	1105.07
515.00	1098.15
516.00	1091.69
517.00	1086.98
518.00	1084.41
519.00	1082.88
520.00	1083.45
521.00	1085.63
522.00	1088.13
523.00	1091.01
524.00	1095.06
525.00	1100.45
526.00	1107.46
527.00	1115.32
528.00	1122.42
529.00	1129.89
530.00	1139.71
531.00	1148.23
532.00	1156.62
533.00	1165.50
534.00	1173.64
535.00	1182.30
536.00	1191.52
537.00	1200.37
538.00	1209.55
539.00	1220.76
540.00	1230.65
541.00	1237.34
542.00	1243.88
543.00	1253.65
544.00	1264.25
545.00	1275.10
546.00	1285.10
547.00	1295.92
548.00	1304.95
549.00	1314.14
550.00	1321.15
551.00	1329.68
552.00	1342.48
553.00	1356.62
554.00	1371.19
555.00	1386.03
556.00	1398.82
557.00	1409.13
558.00	1421.39
559.00	1436.01
560.00	1452.77
561.00	1476.25
562.00	1506.43
563.00	1542.52
564.00	1573.81
565.00	1608.99
566.00	1648.89
567.00	1682.90
568.00	1719.39
569.00	1776.21
570.00	1821.34
571.00	1864.17
572.00	1914.67
573.00	1974.07
574.00	2014.60
575.00	2044.29
576.00	2090.10
577.00	2135.69
578.00	2177.44
579.00	2219.12
580.00	2249.66
581.00	2272.99
582.00	2287.19
583.00	2300.25
584.00	2324.31
585.00	2343.42
586.00	2350.04
587.00	2345.68
588.00	2349.27
589.00	2354.77
590.00	2356.05
591.00	2371.90
592.00	2379.65
593.00	2367.10
594.00	2339.48
595.00	2336.56
596.00	2343.51
597.00	2340.40
598.00	2341.79
599.00	2344.60
600.00	2336.80
601.00	2336.35
602.00	2337.51
603.00	2345.35
604.00	2353.94
605.00	2348.05
606.00	2359.05
607.00	2369.88
608.00	2381.73
609.00	2391.60
610.00	2393.61
611.00	2384.78
612.00	2368.36
613.00	2370.63
614.00	2380.31
615.00	2393.12
616.00	2395.94
617.00	2397.19
618.00	2393.29
619.00	2383.63
620.00	2378.68
621.00	2380.69
622.00	2381.25
623.00	2380.04
624.00	2375.25
625.00	2365.95
626.00	2353.57
627.00	2333.88
628.00	2321.26
629.00	2308.87
630.00	2297.90
631.00	2288.98
632.00	2276.31
633.00	2268.39
634.00	2252.78
635.00	2240.03
636.00	2225.36
637.00	2212.91
638.00	2202.61
639.00	2195.31
640.00	2192.86
641.00	2186.30
642.00	2180.65
643.00	2176.76
644.00	2176.84
645.00	2175.23
646.00	2180.46
647.00	2242.11
648.00	2255.58
649.00	2259.04
650.00	2260.93
651.00	2258.43
652.00	2255.38
653.00	2253.06
654.00	2251.46
655.00	2250.51
656.00	2249.32
657.00	2246.45
658.00	2244.61
659.00	2242.75
660.00	2237.67
661.00	2230.51
662.00	2229.02
663.00	2230.93
664.00	2229.92
665.00	2226.22
666.00	2224.40
667.00	2217.06
668.00	2154.03
669.00	2137.65
670.00	2132.80
671.00	2133.30
672.00	2136.03
673.00	2138.44
674.00	2139.21
675.00	2143.26
676.00	2149.92
677.00	2153.86
678.00	2159.31
679.00	2163.29
680.00	2167.56
681.00	2170.52
682.00	2176.56
683.00	2177.39
684.00	2175.99
685.00	2176.18
686.00	2179.23
687.00	2182.26
688.00	2190.08
689.00	2193.10
690.00	2192.70
691.00	2190.59
692.00	2188.82
693.00	2190.62
694.00	2191.75
695.00	2194.01
696.00	2191.36
697.00	2187.41
698.00	2190.90
699.00	2194.30
700.00	2196.29
701.00	2197.61
702.00	2197.99
703.00	2196.11
704.00	2198.37
705.00	2200.37
706.00	2203.77
707.00	2202.11
708.00	2201.62
709.00	2197.41
710.00	2196.55
711.00	2196.06
712.00	2196.18
713.00	2196.38
714.00	2193.05
715.00	2189.75
716.00	2188.60
717.00	2188.59
718.00	2185.76
719.00	2178.75
720.00	2172.61
721.00	2171.86
722.00	2171.91
723.00	2172.10
724.00	2171.05
725.00	2167.53
726.00	2164.28
727.00	2159.44
728.00	2157.10
729.00	2154.23
730.00	2149.78
731.00	2141.76
732.00	2133.72
733.00	2126.57
734.00	2117.89
735.00	2108.09
736.00	2099.98
737.00	2089.55
738.00	2078.39
739.00	2067.49
740.00	2058.42
741.00	2049.75
742.00	2037.39
743.00	2023.13
744.00	2010.35
745.00	1995.78
746.00	1982.50
747.00	1972.53
748.00	1967.26
749.00	1958.15
750.00	1948.62
751.00	1940.65
752.00	1936.79
753.00	1936.70
754.00	1937.54
755.00	1946.57
756.00	1955.94
757.00	1963.18
758.00	1975.41
759.00	1992.86
760.00	2009.38
761.00	2026.07
762.00	2042.57
763.00	2059.97
764.00	2077.41
765.00	2093.69
766.00	2111.42
767.00	2127.39
768.00	2138.37
769.00	2146.31
770.00	2157.00
771.00	2169.79
772.00	2178.49
773.00	2186.07
774.00	2188.92
775.00	2188.20
776.00	2181.80
777.00	2173.57
778.00	2167.38
779.00	2157.30
780.00	2139.38
781.00	2122.50
782.00	2101.43
783.00	2080.62
784.00	2065.18
785.00	2046.32
786.00	2024.20
787.00	2001.36
788.00	1979.02
789.00	1957.27
790.00	1934.43
791.00	1913.03
792.00	1889.11
793.00	1866.84
794.00	1845.31
795.00	1825.99
796.00	1811.39
797.00	1794.04
798.00	1778.06
799.00	1760.36
800.00	1742.12
801.00	1727.59
802.00	1711.76
803.00	1698.21
804.00	1683.98
805.00	1662.63
806.00	1646.21
807.00	1633.83
808.00	1621.12
809.00	1608.28
810.00	1598.57
811.00	1587.79
812.00	1576.62
813.00	1565.88
814.00	1554.30
815.00	1543.77
816.00	1534.21
817.00	1522.65
818.00	1509.76
819.00	1497.30
820.00	1485.00
821.00	1471.65
822.00	1458.69
823.00	1446.60
824.00	1432.92
825.00	1418.93
826.00	1406.05
827.00	1392.93
828.00	1379.12
829.00	1366.53
830.00	1354.31
831.00	1339.30
832.00	1326.34
833.00	1313.97
834.00	1301.42
835.00	1289.42
836.00	1276.76
837.00	1263.40
838.00	1248.73
839.00	1236.73
840.00	1225.48
841.00	1212.45
842.00	1204.41
843.00	1194.50
844.00	1182.94
845.00	1175.88
846.00	1161.10
847.00	1158.33
848.00	1147.83
849.00	1132.95
850.00	1122.71
>>>>>End Processed Spectral Data<<<<<
