SpectraSuite Data File
++++++++++++++++++++++++++++++++++++
Date: Fri Feb 01 13:33:28 GMT-05:00 2013
User: glue
Dark Spectrum Present: No
Reference Spectrum Present: No
Number of Sampled Component Spectra: 1
Spectrometers: USB2G46053
Integration Time (usec): 100000 (USB2G46053)
Spectra Averaged: 50 (USB2G46053)
Boxcar Smoothing: 10 (USB2G46053)
Correct for Electrical Dark: No (USB2G46053)
Strobe/Lamp Enabled: Yes (USB2G46053)
Correct for Detector Non-linearity: No (USB2G46053)
Correct for Stray Light: No (USB2G46053)
Number of Pixels in Processed Spectrum: 651
>>>>>Begin Processed Spectral Data<<<<<
200.00	251.34
201.00	254.42
202.00	256.67
203.00	257.54
204.00	263.57
205.00	267.44
206.00	271.50
207.00	276.63
208.00	279.83
209.00	284.71
210.00	296.14
211.00	301.93
212.00	308.31
213.00	314.92
214.00	322.01
215.00	329.52
216.00	337.01
217.00	345.20
218.00	353.71
219.00	362.66
220.00	371.37
221.00	381.16
222.00	391.32
223.00	401.30
224.00	411.48
225.00	421.86
226.00	432.39
227.00	442.29
228.00	452.90
229.00	462.98
230.00	473.59
231.00	484.14
232.00	494.24
233.00	504.24
234.00	514.52
235.00	524.66
236.00	534.38
237.00	543.92
238.00	553.71
239.00	562.79
240.00	572.01
241.00	581.77
242.00	591.56
243.00	599.43
244.00	608.84
245.00	618.69
246.00	627.11
247.00	635.40
248.00	644.61
249.00	653.28
250.00	661.53
251.00	669.74
252.00	678.44
253.00	686.76
254.00	694.38
255.00	701.38
256.00	708.25
257.00	715.37
258.00	722.38
259.00	728.97
260.00	736.26
261.00	742.34
262.00	748.81
263.00	754.45
264.00	760.77
265.00	765.88
266.00	770.22
267.00	776.14
268.00	781.98
269.00	786.73
270.00	791.10
271.00	795.45
272.00	799.36
273.00	803.49
274.00	808.14
275.00	813.02
276.00	817.89
277.00	822.80
278.00	827.91
279.00	834.05
280.00	839.19
281.00	843.73
282.00	849.02
283.00	853.47
284.00	858.00
285.00	864.12
286.00	869.12
287.00	875.15
288.00	880.76
289.00	886.79
290.00	893.64
291.00	900.69
292.00	908.71
293.00	917.28
294.00	925.26
295.00	934.10
296.00	943.02
297.00	952.04
298.00	961.54
299.00	970.73
300.00	979.07
301.00	988.58
302.00	998.46
303.00	1007.65
304.00	1017.40
305.00	1026.81
306.00	1035.30
307.00	1044.35
308.00	1053.01
309.00	1060.76
310.00	1068.37
311.00	1075.52
312.00	1082.45
313.00	1088.36
314.00	1093.63
315.00	1098.55
316.00	1101.73
317.00	1104.75
318.00	1107.36
319.00	1109.43
320.00	1111.65
321.00	1114.49
322.00	1115.88
323.00	1117.16
324.00	1119.08
325.00	1120.27
326.00	1121.82
327.00	1123.22
328.00	1124.51
329.00	1125.08
330.00	1125.22
331.00	1123.20
332.00	1119.25
333.00	1115.85
334.00	1116.60
335.00	1119.51
336.00	1122.64
337.00	1125.93
338.00	1127.99
339.00	1129.94
340.00	1131.35
341.00	1132.41
342.00	1132.84
343.00	1134.20
344.00	1135.28
345.00	1135.97
346.00	1136.66
347.00	1136.54
348.00	1136.66
349.00	1136.68
350.00	1136.38
351.00	1137.03
352.00	1139.63
353.00	1143.89
354.00	1147.92
355.00	1148.55
356.00	1147.18
357.00	1146.41
358.00	1147.02
359.00	1149.22
360.00	1152.11
361.00	1155.65
362.00	1159.77
363.00	1164.42
364.00	1169.27
365.00	1175.41
366.00	1182.61
367.00	1190.15
368.00	1198.61
369.00	1208.71
370.00	1219.52
371.00	1230.47
372.00	1240.41
373.00	1250.45
374.00	1261.04
375.00	1271.31
376.00	1281.42
377.00	1291.92
378.00	1303.09
379.00	1314.08
380.00	1325.04
381.00	1334.85
382.00	1346.46
383.00	1360.40
384.00	1376.04
385.00	1388.55
386.00	1400.55
387.00	1411.90
388.00	1423.04
389.00	1438.96
390.00	1451.96
391.00	1461.80
392.00	1472.07
393.00	1480.43
394.00	1489.73
395.00	1497.72
396.00	1507.02
397.00	1515.13
398.00	1521.16
399.00	1527.07
400.00	1531.83
401.00	1535.70
402.00	1539.46
403.00	1543.15
404.00	1544.45
405.00	1544.96
406.00	1545.31
407.00	1546.74
408.00	1547.02
409.00	1547.46
410.00	1542.50
411.00	1539.63
412.00	1542.26
413.00	1546.29
414.00	1551.06
415.00	1554.07
416.00	1556.98
417.00	1556.13
418.00	1555.37
419.00	1554.85
420.00	1555.72
421.00	1559.22
422.00	1561.81
423.00	1561.29
424.00	1556.61
425.00	1550.05
426.00	1542.17
427.00	1538.53
428.00	1533.48
429.00	1528.54
430.00	1523.47
431.00	1515.99
432.00	1509.01
433.00	1499.71
434.00	1488.77
435.00	1480.80
436.00	1473.33
437.00	1468.27
438.00	1465.63
439.00	1463.67
440.00	1460.88
441.00	1454.81
442.00	1446.69
443.00	1438.24
444.00	1432.04
445.00	1426.32
446.00	1421.47
447.00	1415.23
448.00	1406.78
449.00	1397.54
450.00	1387.63
451.00	1378.15
452.00	1371.36
453.00	1361.30
454.00	1348.77
455.00	1336.77
456.00	1326.62
457.00	1319.78
458.00	1307.27
459.00	1294.96
460.00	1282.16
461.00	1270.16
462.00	1258.78
463.00	1247.82
464.00	1239.73
465.00	1234.60
466.00	1233.75
467.00	1233.71
468.00	1234.70
469.00	1237.09
470.00	1238.62
471.00	1243.58
472.00	1249.55
473.00	1256.98
474.00	1265.28
475.00	1276.92
476.00	1290.43
477.00	1305.83
478.00	1317.25
479.00	1329.71
480.00	1339.08
481.00	1348.25
482.00	1357.71
483.00	1366.12
484.00	1373.68
485.00	1380.17
486.00	1385.37
487.00	1389.59
488.00	1393.67
489.00	1394.13
490.00	1392.48
491.00	1391.05
492.00	1387.07
493.00	1382.38
494.00	1375.14
495.00	1368.49
496.00	1359.45
497.00	1346.17
498.00	1327.35
499.00	1308.48
500.00	1291.57
501.00	1276.88
502.00	1263.04
503.00	1249.13
504.00	1236.07
505.00	1222.50
506.00	1207.66
507.00	1192.69
508.00	1177.52
509.00	1161.06
510.00	1149.63
511.00	1139.23
512.00	1129.39
513.00	1121.06
514.00	1112.17
515.00	1104.99
516.00	1098.34
517.00	1093.30
518.00	1090.68
519.00	1088.88
520.00	1089.17
521.00	1091.05
522.00	1093.42
523.00	1095.84
524.00	1099.56
525.00	1104.51
526.00	1111.28
527.00	1118.68
528.00	1125.62
529.00	1132.69
530.00	1142.13
531.00	1150.22
532.00	1158.09
533.00	1166.57
534.00	1174.19
535.00	1182.69
536.00	1191.46
537.00	1199.89
538.00	1208.47
539.00	1219.23
540.00	1228.60
541.00	1234.89
542.00	1240.83
543.00	1249.99
544.00	1260.28
545.00	1270.68
546.00	1280.24
547.00	1290.21
548.00	1298.55
549.00	1307.16
550.00	1313.55
551.00	1321.73
552.00	1333.92
553.00	1347.68
554.00	1361.85
555.00	1376.21
556.00	1388.37
557.00	1398.38
558.00	1410.09
559.00	1424.33
560.00	1440.65
561.00	1463.56
562.00	1493.25
563.00	1528.90
564.00	1559.79
565.00	1594.27
566.00	1633.80
567.00	1667.40
568.00	1703.68
569.00	1760.03
570.00	1804.69
571.00	1847.17
572.00	1897.19
573.00	1956.00
574.00	1996.11
575.00	2025.40
576.00	2070.42
577.00	2115.43
578.00	2156.91
579.00	2198.64
580.00	2228.99
581.00	2252.12
582.00	2266.53
583.00	2279.49
584.00	2303.33
585.00	2322.41
586.00	2329.34
587.00	2324.95
588.00	2328.56
589.00	2334.18
590.00	2335.55
591.00	2351.40
592.00	2359.47
593.00	2346.91
594.00	2319.78
595.00	2317.01
596.00	2324.15
597.00	2321.76
598.00	2323.53
599.00	2326.23
600.00	2318.55
601.00	2318.25
602.00	2319.67
603.00	2327.56
604.00	2336.23
605.00	2330.72
606.00	2341.99
607.00	2353.09
608.00	2365.30
609.00	2375.37
610.00	2377.46
611.00	2368.86
612.00	2353.07
613.00	2355.68
614.00	2365.63
615.00	2378.52
616.00	2381.53
617.00	2382.95
618.00	2379.36
619.00	2370.16
620.00	2365.59
621.00	2367.74
622.00	2368.51
623.00	2367.42
624.00	2362.97
625.00	2353.96
626.00	2341.91
627.00	2322.40
628.00	2309.80
629.00	2297.49
630.00	2286.72
631.00	2277.97
632.00	2265.65
633.00	2257.81
634.00	2242.32
635.00	2229.77
636.00	2215.44
637.00	2203.20
638.00	2192.93
639.00	2185.52
640.00	2183.09
641.00	2176.59
642.00	2171.21
643.00	2167.40
644.00	2167.61
645.00	2165.93
646.00	2171.37
647.00	2233.06
648.00	2246.58
649.00	2250.12
650.00	2252.29
651.00	2249.87
652.00	2247.00
653.00	2244.71
654.00	2243.08
655.00	2242.22
656.00	2241.11
657.00	2238.11
658.00	2236.51
659.00	2234.86
660.00	2230.06
661.00	2222.99
662.00	2221.55
663.00	2223.57
664.00	2222.69
665.00	2219.18
666.00	2217.41
667.00	2210.07
668.00	2147.07
669.00	2131.06
670.00	2126.37
671.00	2126.78
672.00	2129.40
673.00	2131.83
674.00	2132.78
675.00	2136.91
676.00	2143.39
677.00	2147.37
678.00	2152.92
679.00	2156.77
680.00	2161.05
681.00	2163.96
682.00	2170.04
683.00	2170.91
684.00	2169.58
685.00	2169.94
686.00	2173.09
687.00	2176.41
688.00	2184.50
689.00	2187.82
690.00	2187.21
691.00	2185.04
692.00	2183.31
693.00	2185.45
694.00	2186.76
695.00	2188.96
696.00	2186.30
697.00	2182.59
698.00	2186.26
699.00	2189.66
700.00	2191.72
701.00	2192.96
702.00	2193.48
703.00	2191.69
704.00	2194.21
705.00	2196.18
706.00	2199.60
707.00	2197.87
708.00	2197.21
709.00	2192.78
710.00	2191.68
711.00	2191.45
712.00	2191.77
713.00	2192.16
714.00	2188.72
715.00	2185.33
716.00	2184.27
717.00	2184.28
718.00	2181.35
719.00	2174.48
720.00	2168.32
721.00	2167.65
722.00	2167.89
723.00	2167.95
724.00	2166.95
725.00	2163.20
726.00	2159.86
727.00	2155.19
728.00	2152.69
729.00	2149.89
730.00	2145.49
731.00	2137.55
732.00	2129.32
733.00	2122.01
734.00	2113.23
735.00	2103.59
736.00	2095.41
737.00	2085.00
738.00	2073.97
739.00	2063.25
740.00	2053.92
741.00	2045.56
742.00	2033.12
743.00	2018.97
744.00	2006.18
745.00	1991.63
746.00	1978.85
747.00	1969.20
748.00	1963.80
749.00	1955.02
750.00	1945.57
751.00	1937.64
752.00	1933.89
753.00	1933.77
754.00	1934.67
755.00	1943.81
756.00	1953.23
757.00	1960.58
758.00	1972.89
759.00	1990.26
760.00	2006.93
761.00	2023.78
762.00	2040.19
763.00	2057.57
764.00	2075.13
765.00	2091.60
766.00	2109.12
767.00	2124.85
768.00	2135.54
769.00	2143.50
770.00	2154.17
771.00	2166.98
772.00	2175.80
773.00	2183.13
774.00	2185.79
775.00	2185.02
776.00	2178.52
777.00	2170.10
778.00	2164.21
779.00	2154.04
780.00	2136.35
781.00	2119.18
782.00	2098.16
783.00	2077.25
784.00	2062.01
785.00	2043.03
786.00	2021.00
787.00	1998.29
788.00	1975.94
789.00	1954.33
790.00	1931.42
791.00	1909.84
792.00	1885.85
793.00	1863.55
794.00	1842.36
795.00	1823.29
796.00	1808.80
797.00	1791.33
798.00	1775.50
799.00	1757.66
800.00	1739.40
801.00	1724.53
802.00	1708.74
803.00	1695.04
804.00	1680.89
805.00	1659.62
806.00	1643.11
807.00	1630.71
808.00	1617.97
809.00	1605.25
810.00	1595.44
811.00	1584.58
812.00	1573.51
813.00	1562.88
814.00	1551.18
815.00	1540.67
816.00	1531.17
817.00	1519.72
818.00	1506.97
819.00	1494.52
820.00	1482.01
821.00	1468.82
822.00	1456.09
823.00	1444.12
824.00	1430.63
825.00	1416.74
826.00	1403.97
827.00	1390.90
828.00	1377.03
829.00	1364.67
830.00	1352.47
831.00	1337.73
832.00	1324.79
833.00	1312.46
834.00	1299.87
835.00	1288.15
836.00	1275.52
837.00	1262.28
838.00	1247.60
839.00	1235.66
840.00	1224.56
841.00	1213.86
842.00	1200.84
843.00	1192.91
844.00	1181.98
845.00	1177.16
846.00	1160.94
847.00	1158.77
848.00	1146.91
849.00	1131.99
850.00	1123.20
>>>>>End Processed Spectral Data<<<<<
