SpectraSuite Data File
++++++++++++++++++++++++++++++++++++
Date: Fri Feb 01 13:33:39 GMT-05:00 2013
User: glue
Dark Spectrum Present: No
Reference Spectrum Present: No
Number of Sampled Component Spectra: 1
Spectrometers: USB2G46053
Integration Time (usec): 100000 (USB2G46053)
Spectra Averaged: 50 (USB2G46053)
Boxcar Smoothing: 10 (USB2G46053)
Correct for Electrical Dark: No (USB2G46053)
Strobe/Lamp Enabled: Yes (USB2G46053)
Correct for Detector Non-linearity: No (USB2G46053)
Correct for Stray Light: No (USB2G46053)
Number of Pixels in Processed Spectrum: 651
>>>>>Begin Processed Spectral Data<<<<<
200.00	250.48
201.00	252.76
202.00	255.88
203.00	257.06
204.00	263.70
205.00	266.59
206.00	271.13
207.00	275.97
208.00	278.04
209.00	284.38
210.00	295.57
211.00	301.37
212.00	307.86
213.00	314.47
214.00	321.59
215.00	329.10
216.00	336.55
217.00	344.74
218.00	353.27
219.00	362.28
220.00	370.97
221.00	380.71
222.00	390.86
223.00	400.84
224.00	411.06
225.00	421.39
226.00	431.90
227.00	441.72
228.00	452.31
229.00	462.26
230.00	472.94
231.00	483.53
232.00	493.60
233.00	503.52
234.00	513.84
235.00	523.90
236.00	533.57
237.00	543.08
238.00	552.86
239.00	561.90
240.00	571.10
241.00	580.82
242.00	590.65
243.00	598.43
244.00	607.85
245.00	617.57
246.00	626.06
247.00	634.41
248.00	643.65
249.00	652.36
250.00	660.64
251.00	668.73
252.00	677.23
253.00	685.47
254.00	693.06
255.00	699.97
256.00	706.86
257.00	713.98
258.00	721.15
259.00	727.66
260.00	734.97
261.00	741.07
262.00	747.57
263.00	753.16
264.00	759.48
265.00	764.51
266.00	768.85
267.00	774.73
268.00	780.46
269.00	785.19
270.00	789.49
271.00	793.88
272.00	797.85
273.00	802.09
274.00	806.83
275.00	811.71
276.00	816.55
277.00	821.37
278.00	826.46
279.00	832.50
280.00	837.69
281.00	842.26
282.00	847.54
283.00	851.99
284.00	856.56
285.00	862.68
286.00	867.66
287.00	873.78
288.00	879.42
289.00	885.41
290.00	892.24
291.00	899.34
292.00	907.37
293.00	915.94
294.00	923.94
295.00	932.69
296.00	941.74
297.00	950.68
298.00	960.17
299.00	969.32
300.00	977.67
301.00	987.07
302.00	996.89
303.00	1006.08
304.00	1015.90
305.00	1025.23
306.00	1033.69
307.00	1042.82
308.00	1051.41
309.00	1058.99
310.00	1066.74
311.00	1073.89
312.00	1080.73
313.00	1086.51
314.00	1091.80
315.00	1096.70
316.00	1100.02
317.00	1102.91
318.00	1105.63
319.00	1107.71
320.00	1109.89
321.00	1112.68
322.00	1114.23
323.00	1115.56
324.00	1117.36
325.00	1118.48
326.00	1120.08
327.00	1121.48
328.00	1122.61
329.00	1123.19
330.00	1123.29
331.00	1121.04
332.00	1117.14
333.00	1113.75
334.00	1114.62
335.00	1117.61
336.00	1120.83
337.00	1124.09
338.00	1126.14
339.00	1128.09
340.00	1129.45
341.00	1130.66
342.00	1131.11
343.00	1132.32
344.00	1133.38
345.00	1134.16
346.00	1134.82
347.00	1134.85
348.00	1135.02
349.00	1135.03
350.00	1134.63
351.00	1135.55
352.00	1138.33
353.00	1142.78
354.00	1146.91
355.00	1147.67
356.00	1146.43
357.00	1145.60
358.00	1146.00
359.00	1148.15
360.00	1150.94
361.00	1154.47
362.00	1158.47
363.00	1163.17
364.00	1168.02
365.00	1174.22
366.00	1181.24
367.00	1188.77
368.00	1197.28
369.00	1207.36
370.00	1218.54
371.00	1229.52
372.00	1239.33
373.00	1249.25
374.00	1259.70
375.00	1269.78
376.00	1279.80
377.00	1290.00
378.00	1301.25
379.00	1312.30
380.00	1323.34
381.00	1333.21
382.00	1344.90
383.00	1358.84
384.00	1374.41
385.00	1386.94
386.00	1398.63
387.00	1410.21
388.00	1421.44
389.00	1437.16
390.00	1450.13
391.00	1459.67
392.00	1469.93
393.00	1478.28
394.00	1487.60
395.00	1495.55
396.00	1505.07
397.00	1513.09
398.00	1519.23
399.00	1525.04
400.00	1530.00
401.00	1534.01
402.00	1537.79
403.00	1541.44
404.00	1542.77
405.00	1543.29
406.00	1543.76
407.00	1545.37
408.00	1545.84
409.00	1546.22
410.00	1541.34
411.00	1538.53
412.00	1541.11
413.00	1545.23
414.00	1550.11
415.00	1553.03
416.00	1555.80
417.00	1554.74
418.00	1553.99
419.00	1553.20
420.00	1553.84
421.00	1557.38
422.00	1559.95
423.00	1559.37
424.00	1554.90
425.00	1548.24
426.00	1540.42
427.00	1536.81
428.00	1531.86
429.00	1526.64
430.00	1521.46
431.00	1513.87
432.00	1506.78
433.00	1497.51
434.00	1486.55
435.00	1478.64
436.00	1471.22
437.00	1466.38
438.00	1463.77
439.00	1461.89
440.00	1459.28
441.00	1453.35
442.00	1445.12
443.00	1436.66
444.00	1430.56
445.00	1424.78
446.00	1419.97
447.00	1413.61
448.00	1405.01
449.00	1395.81
450.00	1385.99
451.00	1376.54
452.00	1369.70
453.00	1359.84
454.00	1347.34
455.00	1335.33
456.00	1325.17
457.00	1318.53
458.00	1305.89
459.00	1293.59
460.00	1280.73
461.00	1268.78
462.00	1257.55
463.00	1246.48
464.00	1238.40
465.00	1233.33
466.00	1232.46
467.00	1232.60
468.00	1233.69
469.00	1236.09
470.00	1237.59
471.00	1242.47
472.00	1248.52
473.00	1256.18
474.00	1264.44
475.00	1276.07
476.00	1289.66
477.00	1305.09
478.00	1316.51
479.00	1329.13
480.00	1338.63
481.00	1347.85
482.00	1357.28
483.00	1365.74
484.00	1373.42
485.00	1379.91
486.00	1384.93
487.00	1389.01
488.00	1392.98
489.00	1393.45
490.00	1391.85
491.00	1390.24
492.00	1386.38
493.00	1381.59
494.00	1374.24
495.00	1367.61
496.00	1358.58
497.00	1345.20
498.00	1326.29
499.00	1307.30
500.00	1290.23
501.00	1275.67
502.00	1261.77
503.00	1247.95
504.00	1234.73
505.00	1221.17
506.00	1206.10
507.00	1191.25
508.00	1176.20
509.00	1159.57
510.00	1148.05
511.00	1137.73
512.00	1128.00
513.00	1119.63
514.00	1110.87
515.00	1103.56
516.00	1096.91
517.00	1091.80
518.00	1089.19
519.00	1087.30
520.00	1087.67
521.00	1089.63
522.00	1091.78
523.00	1094.30
524.00	1098.16
525.00	1103.13
526.00	1109.76
527.00	1117.21
528.00	1124.04
529.00	1131.20
530.00	1140.91
531.00	1148.93
532.00	1156.70
533.00	1165.18
534.00	1172.69
535.00	1180.92
536.00	1189.62
537.00	1198.06
538.00	1206.67
539.00	1217.35
540.00	1226.69
541.00	1232.88
542.00	1238.86
543.00	1247.80
544.00	1258.07
545.00	1268.22
546.00	1277.79
547.00	1288.01
548.00	1296.60
549.00	1305.37
550.00	1311.62
551.00	1319.66
552.00	1331.84
553.00	1345.52
554.00	1359.56
555.00	1373.94
556.00	1386.32
557.00	1396.44
558.00	1408.02
559.00	1422.34
560.00	1438.65
561.00	1461.44
562.00	1491.02
563.00	1526.45
564.00	1557.37
565.00	1591.67
566.00	1631.08
567.00	1664.50
568.00	1700.50
569.00	1756.33
570.00	1800.75
571.00	1843.12
572.00	1892.79
573.00	1951.43
574.00	1991.66
575.00	2021.06
576.00	2066.08
577.00	2111.07
578.00	2152.33
579.00	2193.78
580.00	2224.14
581.00	2247.20
582.00	2261.68
583.00	2274.82
584.00	2298.90
585.00	2318.00
586.00	2324.84
587.00	2320.53
588.00	2324.41
589.00	2330.12
590.00	2331.79
591.00	2347.72
592.00	2355.88
593.00	2343.67
594.00	2316.85
595.00	2313.98
596.00	2320.99
597.00	2318.73
598.00	2320.47
599.00	2323.39
600.00	2316.17
601.00	2315.98
602.00	2317.53
603.00	2325.60
604.00	2334.38
605.00	2328.82
606.00	2340.18
607.00	2351.48
608.00	2363.67
609.00	2373.57
610.00	2375.79
611.00	2367.20
612.00	2351.54
613.00	2354.16
614.00	2364.31
615.00	2377.36
616.00	2380.68
617.00	2382.38
618.00	2378.60
619.00	2369.54
620.00	2365.03
621.00	2367.24
622.00	2367.93
623.00	2366.95
624.00	2362.38
625.00	2353.34
626.00	2341.36
627.00	2322.05
628.00	2309.58
629.00	2297.57
630.00	2286.99
631.00	2278.21
632.00	2266.08
633.00	2258.19
634.00	2242.65
635.00	2230.15
636.00	2215.79
637.00	2203.52
638.00	2193.36
639.00	2186.34
640.00	2183.80
641.00	2177.60
642.00	2172.10
643.00	2168.49
644.00	2168.72
645.00	2167.19
646.00	2172.49
647.00	2234.15
648.00	2247.56
649.00	2250.97
650.00	2253.02
651.00	2250.64
652.00	2247.88
653.00	2245.58
654.00	2244.17
655.00	2243.51
656.00	2242.13
657.00	2239.22
658.00	2237.45
659.00	2235.51
660.00	2230.51
661.00	2223.58
662.00	2222.13
663.00	2224.07
664.00	2223.21
665.00	2219.66
666.00	2218.09
667.00	2211.22
668.00	2148.36
669.00	2132.26
670.00	2127.78
671.00	2128.39
672.00	2131.08
673.00	2133.55
674.00	2134.63
675.00	2138.72
676.00	2145.30
677.00	2149.55
678.00	2154.98
679.00	2158.83
680.00	2163.09
681.00	2166.08
682.00	2172.10
683.00	2172.96
684.00	2171.70
685.00	2172.01
686.00	2175.29
687.00	2178.17
688.00	2185.77
689.00	2188.84
690.00	2188.33
691.00	2186.06
692.00	2184.10
693.00	2186.15
694.00	2187.39
695.00	2189.45
696.00	2186.80
697.00	2182.80
698.00	2186.28
699.00	2189.71
700.00	2192.03
701.00	2193.50
702.00	2194.04
703.00	2192.18
704.00	2194.38
705.00	2196.37
706.00	2199.75
707.00	2197.89
708.00	2197.43
709.00	2193.33
710.00	2192.46
711.00	2192.30
712.00	2192.36
713.00	2192.81
714.00	2189.43
715.00	2186.08
716.00	2185.14
717.00	2185.15
718.00	2182.52
719.00	2175.70
720.00	2169.47
721.00	2168.69
722.00	2168.76
723.00	2168.84
724.00	2168.06
725.00	2164.46
726.00	2161.24
727.00	2156.48
728.00	2154.14
729.00	2151.39
730.00	2146.89
731.00	2138.90
732.00	2130.64
733.00	2123.74
734.00	2115.01
735.00	2105.05
736.00	2096.88
737.00	2086.42
738.00	2075.38
739.00	2064.57
740.00	2055.36
741.00	2047.04
742.00	2034.51
743.00	2020.46
744.00	2007.53
745.00	1992.72
746.00	1979.90
747.00	1970.15
748.00	1964.73
749.00	1955.80
750.00	1946.26
751.00	1938.35
752.00	1934.52
753.00	1934.41
754.00	1935.15
755.00	1944.33
756.00	1954.02
757.00	1961.26
758.00	1973.45
759.00	1990.88
760.00	2007.15
761.00	2023.94
762.00	2040.39
763.00	2057.81
764.00	2075.19
765.00	2091.78
766.00	2109.39
767.00	2125.09
768.00	2135.95
769.00	2143.98
770.00	2154.57
771.00	2167.41
772.00	2176.14
773.00	2183.60
774.00	2186.50
775.00	2185.77
776.00	2179.17
777.00	2170.75
778.00	2164.81
779.00	2154.53
780.00	2136.64
781.00	2119.83
782.00	2098.73
783.00	2077.81
784.00	2062.50
785.00	2043.74
786.00	2021.87
787.00	1999.20
788.00	1977.08
789.00	1955.30
790.00	1932.47
791.00	1911.10
792.00	1887.16
793.00	1864.89
794.00	1843.39
795.00	1824.13
796.00	1809.59
797.00	1792.26
798.00	1776.58
799.00	1758.92
800.00	1740.94
801.00	1726.19
802.00	1710.52
803.00	1696.94
804.00	1682.84
805.00	1661.63
806.00	1645.13
807.00	1632.63
808.00	1619.92
809.00	1606.92
810.00	1597.07
811.00	1586.13
812.00	1574.98
813.00	1564.34
814.00	1552.60
815.00	1542.15
816.00	1532.77
817.00	1521.29
818.00	1508.36
819.00	1495.78
820.00	1483.18
821.00	1469.82
822.00	1457.25
823.00	1445.10
824.00	1431.63
825.00	1417.69
826.00	1404.94
827.00	1391.83
828.00	1377.80
829.00	1365.32
830.00	1353.23
831.00	1338.35
832.00	1325.41
833.00	1313.07
834.00	1300.47
835.00	1288.71
836.00	1276.22
837.00	1262.85
838.00	1248.03
839.00	1236.12
840.00	1224.81
841.00	1210.14
842.00	1201.61
843.00	1194.12
844.00	1181.90
845.00	1177.34
846.00	1161.83
847.00	1159.31
848.00	1143.46
849.00	1132.00
850.00	1120.56
>>>>>End Processed Spectral Data<<<<<
