SpectraSuite Data File
++++++++++++++++++++++++++++++++++++
Date: Fri Feb 01 13:33:08 GMT-05:00 2013
User: glue
Dark Spectrum Present: No
Reference Spectrum Present: No
Number of Sampled Component Spectra: 1
Spectrometers: USB2G46053
Integration Time (usec): 100000 (USB2G46053)
Spectra Averaged: 50 (USB2G46053)
Boxcar Smoothing: 10 (USB2G46053)
Correct for Electrical Dark: No (USB2G46053)
Strobe/Lamp Enabled: Yes (USB2G46053)
Correct for Detector Non-linearity: No (USB2G46053)
Correct for Stray Light: No (USB2G46053)
Number of Pixels in Processed Spectrum: 651
>>>>>Begin Processed Spectral Data<<<<<
200.00	251.41
201.00	253.51
202.00	255.67
203.00	256.90
204.00	263.57
205.00	266.06
206.00	270.99
207.00	276.12
208.00	278.54
209.00	284.18
210.00	295.53
211.00	301.25
212.00	307.66
213.00	314.25
214.00	321.33
215.00	328.83
216.00	336.31
217.00	344.45
218.00	352.94
219.00	361.96
220.00	370.64
221.00	380.36
222.00	390.43
223.00	400.42
224.00	410.61
225.00	420.87
226.00	431.29
227.00	441.09
228.00	451.63
229.00	461.59
230.00	472.19
231.00	482.74
232.00	492.82
233.00	502.79
234.00	513.10
235.00	523.15
236.00	532.74
237.00	542.23
238.00	552.00
239.00	561.03
240.00	570.15
241.00	579.87
242.00	589.84
243.00	597.67
244.00	606.96
245.00	616.73
246.00	625.22
247.00	633.61
248.00	642.89
249.00	651.70
250.00	659.97
251.00	668.11
252.00	676.66
253.00	684.97
254.00	692.49
255.00	699.34
256.00	706.17
257.00	713.31
258.00	720.34
259.00	726.92
260.00	734.19
261.00	740.33
262.00	746.76
263.00	752.08
264.00	758.43
265.00	763.46
266.00	767.86
267.00	773.82
268.00	779.59
269.00	784.33
270.00	788.57
271.00	793.00
272.00	797.04
273.00	801.28
274.00	805.88
275.00	810.83
276.00	815.75
277.00	820.77
278.00	825.90
279.00	832.11
280.00	837.18
281.00	841.77
282.00	847.03
283.00	851.50
284.00	856.24
285.00	862.35
286.00	867.51
287.00	873.48
288.00	879.03
289.00	884.99
290.00	891.70
291.00	898.73
292.00	906.67
293.00	915.21
294.00	923.12
295.00	931.97
296.00	940.96
297.00	950.04
298.00	959.45
299.00	968.68
300.00	976.91
301.00	986.42
302.00	996.13
303.00	1005.37
304.00	1015.11
305.00	1024.37
306.00	1032.81
307.00	1041.91
308.00	1050.50
309.00	1058.16
310.00	1065.79
311.00	1073.05
312.00	1079.96
313.00	1085.78
314.00	1091.09
315.00	1096.11
316.00	1099.37
317.00	1102.25
318.00	1104.91
319.00	1107.02
320.00	1109.26
321.00	1112.18
322.00	1113.66
323.00	1115.06
324.00	1116.84
325.00	1118.01
326.00	1119.62
327.00	1120.98
328.00	1122.11
329.00	1122.71
330.00	1123.03
331.00	1120.92
332.00	1116.85
333.00	1113.43
334.00	1114.33
335.00	1117.24
336.00	1120.34
337.00	1123.49
338.00	1125.62
339.00	1127.44
340.00	1128.83
341.00	1129.94
342.00	1130.40
343.00	1131.73
344.00	1132.86
345.00	1133.67
346.00	1134.39
347.00	1134.58
348.00	1134.82
349.00	1134.82
350.00	1134.59
351.00	1135.18
352.00	1137.90
353.00	1142.40
354.00	1146.46
355.00	1147.06
356.00	1145.72
357.00	1144.90
358.00	1145.55
359.00	1147.71
360.00	1150.55
361.00	1153.95
362.00	1158.00
363.00	1162.73
364.00	1167.56
365.00	1173.67
366.00	1180.69
367.00	1188.25
368.00	1196.45
369.00	1206.52
370.00	1217.45
371.00	1228.35
372.00	1238.32
373.00	1248.34
374.00	1258.86
375.00	1269.07
376.00	1279.26
377.00	1289.50
378.00	1300.69
379.00	1311.56
380.00	1322.44
381.00	1332.45
382.00	1344.38
383.00	1358.11
384.00	1373.51
385.00	1385.96
386.00	1397.92
387.00	1409.37
388.00	1420.51
389.00	1436.28
390.00	1449.18
391.00	1458.97
392.00	1469.18
393.00	1477.51
394.00	1486.80
395.00	1494.74
396.00	1504.23
397.00	1512.27
398.00	1518.56
399.00	1524.51
400.00	1529.36
401.00	1533.24
402.00	1536.94
403.00	1540.47
404.00	1541.96
405.00	1542.66
406.00	1543.17
407.00	1544.78
408.00	1545.14
409.00	1545.46
410.00	1540.54
411.00	1537.78
412.00	1540.31
413.00	1544.40
414.00	1549.14
415.00	1552.07
416.00	1554.87
417.00	1553.81
418.00	1552.99
419.00	1552.01
420.00	1552.66
421.00	1556.36
422.00	1559.11
423.00	1558.38
424.00	1553.65
425.00	1547.10
426.00	1539.17
427.00	1535.62
428.00	1530.42
429.00	1525.37
430.00	1520.37
431.00	1512.95
432.00	1505.94
433.00	1496.68
434.00	1485.77
435.00	1477.78
436.00	1470.27
437.00	1465.36
438.00	1462.61
439.00	1460.73
440.00	1458.22
441.00	1452.15
442.00	1443.92
443.00	1435.48
444.00	1429.36
445.00	1423.61
446.00	1418.62
447.00	1412.25
448.00	1403.60
449.00	1394.33
450.00	1384.34
451.00	1374.77
452.00	1367.98
453.00	1358.02
454.00	1345.53
455.00	1333.50
456.00	1323.34
457.00	1316.57
458.00	1303.90
459.00	1291.79
460.00	1278.89
461.00	1266.96
462.00	1255.80
463.00	1244.75
464.00	1236.52
465.00	1231.57
466.00	1230.87
467.00	1230.92
468.00	1232.09
469.00	1234.49
470.00	1235.93
471.00	1240.76
472.00	1246.79
473.00	1254.12
474.00	1262.19
475.00	1273.69
476.00	1287.13
477.00	1302.50
478.00	1313.91
479.00	1326.39
480.00	1335.61
481.00	1344.83
482.00	1354.22
483.00	1362.62
484.00	1370.09
485.00	1376.61
486.00	1381.47
487.00	1385.51
488.00	1389.54
489.00	1389.75
490.00	1387.97
491.00	1386.61
492.00	1382.85
493.00	1378.05
494.00	1370.77
495.00	1364.21
496.00	1355.12
497.00	1341.85
498.00	1322.88
499.00	1303.90
500.00	1286.95
501.00	1272.29
502.00	1258.58
503.00	1244.66
504.00	1231.49
505.00	1217.87
506.00	1203.02
507.00	1188.15
508.00	1172.98
509.00	1156.34
510.00	1144.93
511.00	1134.71
512.00	1124.81
513.00	1116.36
514.00	1107.61
515.00	1100.44
516.00	1093.86
517.00	1088.79
518.00	1086.21
519.00	1084.57
520.00	1084.96
521.00	1086.92
522.00	1089.18
523.00	1091.59
524.00	1095.55
525.00	1100.69
526.00	1107.55
527.00	1115.05
528.00	1122.14
529.00	1129.39
530.00	1139.26
531.00	1147.56
532.00	1155.53
533.00	1164.24
534.00	1172.11
535.00	1180.60
536.00	1189.67
537.00	1198.32
538.00	1207.25
539.00	1218.39
540.00	1227.95
541.00	1234.52
542.00	1240.83
543.00	1250.42
544.00	1260.92
545.00	1271.37
546.00	1281.15
547.00	1291.73
548.00	1300.50
549.00	1309.49
550.00	1316.08
551.00	1324.42
552.00	1336.84
553.00	1350.88
554.00	1365.21
555.00	1379.91
556.00	1392.55
557.00	1402.91
558.00	1414.87
559.00	1429.49
560.00	1445.89
561.00	1469.12
562.00	1499.09
563.00	1535.05
564.00	1566.01
565.00	1600.70
566.00	1640.52
567.00	1674.39
568.00	1710.58
569.00	1767.02
570.00	1811.82
571.00	1854.69
572.00	1904.79
573.00	1963.98
574.00	2004.34
575.00	2033.99
576.00	2079.39
577.00	2124.54
578.00	2165.94
579.00	2207.60
580.00	2238.00
581.00	2261.30
582.00	2275.62
583.00	2288.47
584.00	2312.33
585.00	2331.71
586.00	2338.64
587.00	2334.07
588.00	2337.69
589.00	2343.50
590.00	2344.90
591.00	2360.77
592.00	2368.66
593.00	2356.23
594.00	2328.88
595.00	2325.77
596.00	2332.63
597.00	2329.89
598.00	2331.66
599.00	2334.69
600.00	2326.94
601.00	2326.49
602.00	2327.70
603.00	2335.54
604.00	2344.41
605.00	2338.79
606.00	2349.95
607.00	2360.93
608.00	2373.16
609.00	2383.14
610.00	2384.96
611.00	2376.31
612.00	2360.39
613.00	2362.91
614.00	2372.74
615.00	2385.73
616.00	2388.95
617.00	2390.34
618.00	2386.55
619.00	2377.04
620.00	2372.06
621.00	2374.41
622.00	2375.07
623.00	2373.92
624.00	2369.60
625.00	2360.42
626.00	2348.18
627.00	2328.49
628.00	2315.86
629.00	2303.53
630.00	2292.64
631.00	2284.07
632.00	2271.69
633.00	2263.76
634.00	2248.19
635.00	2235.52
636.00	2220.94
637.00	2208.61
638.00	2198.56
639.00	2191.29
640.00	2188.74
641.00	2182.38
642.00	2176.71
643.00	2173.10
644.00	2173.33
645.00	2171.57
646.00	2177.10
647.00	2238.78
648.00	2252.46
649.00	2255.93
650.00	2257.89
651.00	2255.42
652.00	2252.28
653.00	2249.86
654.00	2248.14
655.00	2247.19
656.00	2246.04
657.00	2243.25
658.00	2241.39
659.00	2239.45
660.00	2234.62
661.00	2227.58
662.00	2226.02
663.00	2228.00
664.00	2226.98
665.00	2223.30
666.00	2221.51
667.00	2214.12
668.00	2151.07
669.00	2134.74
670.00	2130.20
671.00	2130.81
672.00	2133.48
673.00	2136.07
674.00	2137.04
675.00	2141.24
676.00	2147.77
677.00	2151.77
678.00	2157.10
679.00	2160.99
680.00	2165.27
681.00	2168.19
682.00	2174.15
683.00	2175.27
684.00	2174.01
685.00	2174.19
686.00	2177.56
687.00	2180.68
688.00	2188.43
689.00	2191.55
690.00	2190.95
691.00	2188.56
692.00	2186.84
693.00	2188.94
694.00	2190.03
695.00	2192.04
696.00	2189.45
697.00	2185.67
698.00	2189.20
699.00	2192.67
700.00	2194.77
701.00	2196.22
702.00	2196.59
703.00	2194.93
704.00	2197.09
705.00	2199.03
706.00	2202.63
707.00	2200.82
708.00	2200.26
709.00	2195.97
710.00	2195.01
711.00	2194.68
712.00	2195.00
713.00	2195.06
714.00	2191.58
715.00	2188.26
716.00	2187.33
717.00	2187.35
718.00	2184.46
719.00	2177.67
720.00	2171.24
721.00	2170.58
722.00	2170.60
723.00	2170.68
724.00	2169.64
725.00	2165.92
726.00	2162.52
727.00	2157.61
728.00	2155.05
729.00	2152.27
730.00	2148.06
731.00	2140.25
732.00	2132.07
733.00	2124.92
734.00	2116.36
735.00	2106.45
736.00	2098.25
737.00	2087.80
738.00	2076.53
739.00	2065.91
740.00	2056.65
741.00	2048.35
742.00	2035.89
743.00	2021.89
744.00	2009.14
745.00	1994.50
746.00	1981.59
747.00	1972.01
748.00	1966.88
749.00	1958.01
750.00	1948.32
751.00	1940.31
752.00	1936.30
753.00	1936.39
754.00	1937.22
755.00	1946.26
756.00	1955.93
757.00	1963.35
758.00	1975.55
759.00	1993.25
760.00	2009.56
761.00	2026.28
762.00	2042.72
763.00	2060.04
764.00	2077.26
765.00	2093.57
766.00	2111.19
767.00	2127.03
768.00	2137.83
769.00	2145.66
770.00	2156.34
771.00	2169.15
772.00	2177.70
773.00	2185.14
774.00	2187.66
775.00	2186.94
776.00	2180.40
777.00	2172.02
778.00	2166.01
779.00	2155.90
780.00	2137.78
781.00	2120.82
782.00	2099.80
783.00	2078.96
784.00	2063.69
785.00	2044.85
786.00	2022.92
787.00	2000.09
788.00	1977.76
789.00	1956.02
790.00	1933.09
791.00	1911.66
792.00	1887.73
793.00	1865.42
794.00	1844.02
795.00	1824.88
796.00	1810.19
797.00	1792.85
798.00	1777.00
799.00	1759.16
800.00	1740.89
801.00	1726.19
802.00	1710.53
803.00	1696.84
804.00	1682.79
805.00	1661.52
806.00	1645.14
807.00	1632.67
808.00	1620.10
809.00	1607.22
810.00	1597.35
811.00	1586.48
812.00	1575.11
813.00	1564.69
814.00	1553.17
815.00	1542.71
816.00	1533.34
817.00	1521.89
818.00	1508.93
819.00	1496.36
820.00	1483.90
821.00	1470.62
822.00	1457.94
823.00	1445.73
824.00	1432.19
825.00	1418.13
826.00	1405.29
827.00	1392.07
828.00	1378.19
829.00	1365.62
830.00	1353.44
831.00	1338.43
832.00	1325.34
833.00	1313.16
834.00	1300.50
835.00	1288.66
836.00	1276.15
837.00	1262.86
838.00	1248.11
839.00	1236.38
840.00	1225.11
841.00	1209.11
842.00	1199.71
843.00	1194.21
844.00	1184.49
845.00	1178.11
846.00	1163.04
847.00	1159.98
848.00	1146.21
849.00	1135.20
850.00	1120.74
>>>>>End Processed Spectral Data<<<<<
