SpectraSuite Data File
++++++++++++++++++++++++++++++++++++
Date: Fri Feb 01 13:33:18 GMT-05:00 2013
User: glue
Dark Spectrum Present: No
Reference Spectrum Present: No
Number of Sampled Component Spectra: 1
Spectrometers: USB2G46053
Integration Time (usec): 100000 (USB2G46053)
Spectra Averaged: 50 (USB2G46053)
Boxcar Smoothing: 10 (USB2G46053)
Correct for Electrical Dark: No (USB2G46053)
Strobe/Lamp Enabled: Yes (USB2G46053)
Correct for Detector Non-linearity: No (USB2G46053)
Correct for Stray Light: No (USB2G46053)
Number of Pixels in Processed Spectrum: 651
>>>>>Begin Processed Spectral Data<<<<<
200.00	251.03
201.00	253.47
202.00	256.12
203.00	257.22
204.00	263.16
205.00	266.58
206.00	271.46
207.00	275.66
208.00	279.32
209.00	284.96
210.00	295.94
211.00	301.73
212.00	308.21
213.00	314.79
214.00	321.93
215.00	329.43
216.00	336.91
217.00	345.05
218.00	353.57
219.00	362.57
220.00	371.26
221.00	380.98
222.00	391.03
223.00	400.99
224.00	411.16
225.00	421.52
226.00	432.02
227.00	441.92
228.00	452.48
229.00	462.55
230.00	473.19
231.00	483.71
232.00	493.91
233.00	503.84
234.00	514.17
235.00	524.29
236.00	533.96
237.00	543.47
238.00	553.27
239.00	562.32
240.00	571.52
241.00	581.31
242.00	591.18
243.00	599.05
244.00	608.47
245.00	618.36
246.00	626.90
247.00	635.16
248.00	644.44
249.00	653.18
250.00	661.38
251.00	669.60
252.00	678.22
253.00	686.47
254.00	694.05
255.00	701.04
256.00	707.88
257.00	715.06
258.00	722.12
259.00	728.70
260.00	736.01
261.00	742.16
262.00	748.66
263.00	754.22
264.00	760.62
265.00	765.67
266.00	769.96
267.00	775.76
268.00	781.67
269.00	786.28
270.00	790.60
271.00	794.92
272.00	798.75
273.00	803.04
274.00	807.60
275.00	812.44
276.00	817.29
277.00	822.19
278.00	827.27
279.00	833.46
280.00	838.79
281.00	843.44
282.00	848.70
283.00	853.18
284.00	857.78
285.00	863.92
286.00	868.94
287.00	875.07
288.00	880.64
289.00	886.48
290.00	893.33
291.00	900.31
292.00	908.27
293.00	916.84
294.00	924.71
295.00	933.60
296.00	942.74
297.00	951.75
298.00	961.14
299.00	970.30
300.00	978.57
301.00	987.82
302.00	997.61
303.00	1006.82
304.00	1016.47
305.00	1025.68
306.00	1034.12
307.00	1043.28
308.00	1051.87
309.00	1059.53
310.00	1067.36
311.00	1074.45
312.00	1081.27
313.00	1087.20
314.00	1092.54
315.00	1097.35
316.00	1100.64
317.00	1103.44
318.00	1105.98
319.00	1108.03
320.00	1110.34
321.00	1113.18
322.00	1114.72
323.00	1116.16
324.00	1118.05
325.00	1119.21
326.00	1120.98
327.00	1122.39
328.00	1123.65
329.00	1124.11
330.00	1124.45
331.00	1122.28
332.00	1118.40
333.00	1115.10
334.00	1115.97
335.00	1118.92
336.00	1122.14
337.00	1125.36
338.00	1127.51
339.00	1129.54
340.00	1131.05
341.00	1132.21
342.00	1132.72
343.00	1134.03
344.00	1134.99
345.00	1135.72
346.00	1136.43
347.00	1136.41
348.00	1136.48
349.00	1136.34
350.00	1136.09
351.00	1136.76
352.00	1139.42
353.00	1143.79
354.00	1147.89
355.00	1148.43
356.00	1147.07
357.00	1146.38
358.00	1147.00
359.00	1149.18
360.00	1151.88
361.00	1155.27
362.00	1159.25
363.00	1163.89
364.00	1168.64
365.00	1174.71
366.00	1181.85
367.00	1189.27
368.00	1197.56
369.00	1207.65
370.00	1218.63
371.00	1229.64
372.00	1239.52
373.00	1249.59
374.00	1260.08
375.00	1270.27
376.00	1280.43
377.00	1290.76
378.00	1301.99
379.00	1312.82
380.00	1323.68
381.00	1333.71
382.00	1345.52
383.00	1359.32
384.00	1374.98
385.00	1387.44
386.00	1399.52
387.00	1410.92
388.00	1422.21
389.00	1437.93
390.00	1451.09
391.00	1460.78
392.00	1470.87
393.00	1479.25
394.00	1488.74
395.00	1496.79
396.00	1506.26
397.00	1514.42
398.00	1520.64
399.00	1526.41
400.00	1531.42
401.00	1535.46
402.00	1539.16
403.00	1542.84
404.00	1544.28
405.00	1544.75
406.00	1545.28
407.00	1546.58
408.00	1546.83
409.00	1547.14
410.00	1542.42
411.00	1539.38
412.00	1542.09
413.00	1546.21
414.00	1550.95
415.00	1553.65
416.00	1556.41
417.00	1555.28
418.00	1554.46
419.00	1553.65
420.00	1554.39
421.00	1558.00
422.00	1560.60
423.00	1559.98
424.00	1555.29
425.00	1548.68
426.00	1540.77
427.00	1536.98
428.00	1532.07
429.00	1527.11
430.00	1521.93
431.00	1514.35
432.00	1507.30
433.00	1497.99
434.00	1487.22
435.00	1479.21
436.00	1471.86
437.00	1467.04
438.00	1464.42
439.00	1462.54
440.00	1459.88
441.00	1453.97
442.00	1445.61
443.00	1437.10
444.00	1431.13
445.00	1425.44
446.00	1420.48
447.00	1414.17
448.00	1405.77
449.00	1396.44
450.00	1386.38
451.00	1376.96
452.00	1370.02
453.00	1360.10
454.00	1347.59
455.00	1335.37
456.00	1325.22
457.00	1318.46
458.00	1305.71
459.00	1293.49
460.00	1280.70
461.00	1268.75
462.00	1257.44
463.00	1246.24
464.00	1238.10
465.00	1232.93
466.00	1232.18
467.00	1232.29
468.00	1233.43
469.00	1235.72
470.00	1237.33
471.00	1242.38
472.00	1248.34
473.00	1255.95
474.00	1264.17
475.00	1275.76
476.00	1289.34
477.00	1304.84
478.00	1316.19
479.00	1328.83
480.00	1338.30
481.00	1347.60
482.00	1356.99
483.00	1365.45
484.00	1373.26
485.00	1379.92
486.00	1384.73
487.00	1388.83
488.00	1392.84
489.00	1393.20
490.00	1391.58
491.00	1390.03
492.00	1386.17
493.00	1381.45
494.00	1374.23
495.00	1367.64
496.00	1358.54
497.00	1345.44
498.00	1326.55
499.00	1307.57
500.00	1290.52
501.00	1275.89
502.00	1261.87
503.00	1247.98
504.00	1234.76
505.00	1221.07
506.00	1206.12
507.00	1191.45
508.00	1176.32
509.00	1159.82
510.00	1148.33
511.00	1138.07
512.00	1128.16
513.00	1119.76
514.00	1111.07
515.00	1103.90
516.00	1097.41
517.00	1092.49
518.00	1089.82
519.00	1087.91
520.00	1088.43
521.00	1090.39
522.00	1092.71
523.00	1095.17
524.00	1099.07
525.00	1104.18
526.00	1110.94
527.00	1118.27
528.00	1125.22
529.00	1132.35
530.00	1142.04
531.00	1150.26
532.00	1158.26
533.00	1167.09
534.00	1174.74
535.00	1183.10
536.00	1191.95
537.00	1200.43
538.00	1209.15
539.00	1219.89
540.00	1229.45
541.00	1235.70
542.00	1241.83
543.00	1250.95
544.00	1261.39
545.00	1271.89
546.00	1281.50
547.00	1291.89
548.00	1300.57
549.00	1309.48
550.00	1316.02
551.00	1324.31
552.00	1336.59
553.00	1350.33
554.00	1364.42
555.00	1378.95
556.00	1391.46
557.00	1401.61
558.00	1413.35
559.00	1427.67
560.00	1444.03
561.00	1467.19
562.00	1497.08
563.00	1532.82
564.00	1563.88
565.00	1598.44
566.00	1637.83
567.00	1671.39
568.00	1707.44
569.00	1763.62
570.00	1808.21
571.00	1850.59
572.00	1900.38
573.00	1959.36
574.00	1999.74
575.00	2029.03
576.00	2074.28
577.00	2119.36
578.00	2160.66
579.00	2202.42
580.00	2232.94
581.00	2256.13
582.00	2270.48
583.00	2283.39
584.00	2307.24
585.00	2326.31
586.00	2332.98
587.00	2328.67
588.00	2332.57
589.00	2338.21
590.00	2339.66
591.00	2355.78
592.00	2363.89
593.00	2351.47
594.00	2324.38
595.00	2321.31
596.00	2328.49
597.00	2325.87
598.00	2327.53
599.00	2330.42
600.00	2322.76
601.00	2322.11
602.00	2323.26
603.00	2331.24
604.00	2339.89
605.00	2334.36
606.00	2345.62
607.00	2356.90
608.00	2368.97
609.00	2378.89
610.00	2381.17
611.00	2372.72
612.00	2356.34
613.00	2358.73
614.00	2368.68
615.00	2381.33
616.00	2384.49
617.00	2385.80
618.00	2382.12
619.00	2372.77
620.00	2368.15
621.00	2370.43
622.00	2371.48
623.00	2370.67
624.00	2365.95
625.00	2356.98
626.00	2344.85
627.00	2325.34
628.00	2312.68
629.00	2300.57
630.00	2289.78
631.00	2281.12
632.00	2268.74
633.00	2261.08
634.00	2245.57
635.00	2233.04
636.00	2218.74
637.00	2206.46
638.00	2196.59
639.00	2189.31
640.00	2187.02
641.00	2180.58
642.00	2174.94
643.00	2171.27
644.00	2171.54
645.00	2170.00
646.00	2175.45
647.00	2237.03
648.00	2250.63
649.00	2254.24
650.00	2256.20
651.00	2253.87
652.00	2250.75
653.00	2248.63
654.00	2247.16
655.00	2246.40
656.00	2245.35
657.00	2242.50
658.00	2240.81
659.00	2238.77
660.00	2233.94
661.00	2226.83
662.00	2225.40
663.00	2227.47
664.00	2226.45
665.00	2222.86
666.00	2221.15
667.00	2213.70
668.00	2150.75
669.00	2134.49
670.00	2129.64
671.00	2130.30
672.00	2132.81
673.00	2135.34
674.00	2136.06
675.00	2140.14
676.00	2146.68
677.00	2150.51
678.00	2155.97
679.00	2159.77
680.00	2164.02
681.00	2166.96
682.00	2173.29
683.00	2174.28
684.00	2172.81
685.00	2172.93
686.00	2176.15
687.00	2179.08
688.00	2187.02
689.00	2190.23
690.00	2189.72
691.00	2187.65
692.00	2185.84
693.00	2187.79
694.00	2189.09
695.00	2191.15
696.00	2188.47
697.00	2184.64
698.00	2188.15
699.00	2191.43
700.00	2193.66
701.00	2194.90
702.00	2195.32
703.00	2193.27
704.00	2195.51
705.00	2197.53
706.00	2201.21
707.00	2199.31
708.00	2198.75
709.00	2194.53
710.00	2193.57
711.00	2193.17
712.00	2193.35
713.00	2193.57
714.00	2190.32
715.00	2186.81
716.00	2185.75
717.00	2185.72
718.00	2182.87
719.00	2176.11
720.00	2170.12
721.00	2169.34
722.00	2169.73
723.00	2169.80
724.00	2168.63
725.00	2164.85
726.00	2161.48
727.00	2156.60
728.00	2154.14
729.00	2151.44
730.00	2147.05
731.00	2139.12
732.00	2130.90
733.00	2123.93
734.00	2115.23
735.00	2105.50
736.00	2097.40
737.00	2087.17
738.00	2076.17
739.00	2065.48
740.00	2056.23
741.00	2047.61
742.00	2035.12
743.00	2020.97
744.00	2008.30
745.00	1993.81
746.00	1980.93
747.00	1971.21
748.00	1965.86
749.00	1956.95
750.00	1947.41
751.00	1939.40
752.00	1935.40
753.00	1935.57
754.00	1936.12
755.00	1945.23
756.00	1954.80
757.00	1962.19
758.00	1974.47
759.00	1991.87
760.00	2008.15
761.00	2025.03
762.00	2041.57
763.00	2058.98
764.00	2076.35
765.00	2092.61
766.00	2110.22
767.00	2126.03
768.00	2136.96
769.00	2144.99
770.00	2155.67
771.00	2168.65
772.00	2177.36
773.00	2184.87
774.00	2187.44
775.00	2187.01
776.00	2180.48
777.00	2172.02
778.00	2165.87
779.00	2155.51
780.00	2137.79
781.00	2121.09
782.00	2100.10
783.00	2079.34
784.00	2063.84
785.00	2045.19
786.00	2023.34
787.00	2000.63
788.00	1978.48
789.00	1956.79
790.00	1933.76
791.00	1912.38
792.00	1888.18
793.00	1865.91
794.00	1844.43
795.00	1825.19
796.00	1810.52
797.00	1793.04
798.00	1777.22
799.00	1759.48
800.00	1741.33
801.00	1726.41
802.00	1710.48
803.00	1696.74
804.00	1682.40
805.00	1661.32
806.00	1644.60
807.00	1632.12
808.00	1619.35
809.00	1606.50
810.00	1596.57
811.00	1585.72
812.00	1574.40
813.00	1563.84
814.00	1552.22
815.00	1541.93
816.00	1532.69
817.00	1521.07
818.00	1508.31
819.00	1495.70
820.00	1483.30
821.00	1469.98
822.00	1457.33
823.00	1445.25
824.00	1431.73
825.00	1417.97
826.00	1405.24
827.00	1392.24
828.00	1378.35
829.00	1365.92
830.00	1353.67
831.00	1338.94
832.00	1325.90
833.00	1313.79
834.00	1301.23
835.00	1289.40
836.00	1276.75
837.00	1263.26
838.00	1248.63
839.00	1236.78
840.00	1225.56
841.00	1213.55
842.00	1199.89
843.00	1196.39
844.00	1183.44
845.00	1177.32
846.00	1161.96
847.00	1157.31
848.00	1146.80
849.00	1133.98
850.00	1121.31
>>>>>End Processed Spectral Data<<<<<
