SpectraSuite Data File
++++++++++++++++++++++++++++++++++++
Date: Fri Feb 01 13:34:00 GMT-05:00 2013
User: glue
Dark Spectrum Present: No
Reference Spectrum Present: No
Number of Sampled Component Spectra: 1
Spectrometers: USB2G46053
Integration Time (usec): 100000 (USB2G46053)
Spectra Averaged: 50 (USB2G46053)
Boxcar Smoothing: 10 (USB2G46053)
Correct for Electrical Dark: No (USB2G46053)
Strobe/Lamp Enabled: Yes (USB2G46053)
Correct for Detector Non-linearity: No (USB2G46053)
Correct for Stray Light: No (USB2G46053)
Number of Pixels in Processed Spectrum: 651
>>>>>Begin Processed Spectral Data<<<<<
200.00	251.09
201.00	253.80
202.00	255.18
203.00	256.77
204.00	263.39
205.00	267.23
206.00	271.34
207.00	276.55
208.00	278.90
209.00	284.14
210.00	295.73
211.00	301.52
212.00	307.97
213.00	314.69
214.00	321.77
215.00	329.25
216.00	336.67
217.00	344.75
218.00	353.18
219.00	362.19
220.00	370.87
221.00	380.65
222.00	390.79
223.00	400.75
224.00	410.93
225.00	421.32
226.00	431.87
227.00	441.72
228.00	452.27
229.00	462.31
230.00	472.88
231.00	483.38
232.00	493.53
233.00	503.41
234.00	513.59
235.00	523.69
236.00	533.35
237.00	542.81
238.00	552.67
239.00	561.74
240.00	570.97
241.00	580.74
242.00	590.55
243.00	598.39
244.00	607.80
245.00	617.63
246.00	626.15
247.00	634.38
248.00	643.61
249.00	652.20
250.00	660.39
251.00	668.62
252.00	677.26
253.00	685.45
254.00	693.08
255.00	700.07
256.00	706.96
257.00	714.01
258.00	721.21
259.00	727.76
260.00	735.06
261.00	741.08
262.00	747.54
263.00	753.13
264.00	759.39
265.00	764.36
266.00	768.77
267.00	774.55
268.00	780.36
269.00	785.04
270.00	789.45
271.00	793.87
272.00	797.75
273.00	801.94
274.00	806.56
275.00	811.33
276.00	816.16
277.00	821.01
278.00	826.19
279.00	832.24
280.00	837.41
281.00	842.02
282.00	847.34
283.00	851.80
284.00	856.39
285.00	862.52
286.00	867.57
287.00	873.52
288.00	879.08
289.00	885.10
290.00	892.01
291.00	899.07
292.00	907.05
293.00	915.64
294.00	923.53
295.00	932.47
296.00	941.53
297.00	950.59
298.00	960.00
299.00	969.19
300.00	977.51
301.00	987.01
302.00	996.63
303.00	1005.67
304.00	1015.36
305.00	1024.67
306.00	1033.05
307.00	1042.16
308.00	1050.81
309.00	1058.52
310.00	1066.22
311.00	1073.34
312.00	1080.15
313.00	1085.99
314.00	1091.22
315.00	1096.18
316.00	1099.36
317.00	1102.33
318.00	1104.94
319.00	1107.01
320.00	1109.31
321.00	1112.20
322.00	1113.58
323.00	1115.15
324.00	1117.02
325.00	1118.15
326.00	1119.66
327.00	1121.09
328.00	1122.32
329.00	1122.85
330.00	1123.07
331.00	1120.83
332.00	1116.89
333.00	1113.65
334.00	1114.46
335.00	1117.55
336.00	1120.70
337.00	1123.98
338.00	1126.06
339.00	1127.93
340.00	1129.51
341.00	1130.57
342.00	1131.02
343.00	1132.36
344.00	1133.29
345.00	1134.23
346.00	1134.92
347.00	1135.03
348.00	1135.26
349.00	1135.23
350.00	1134.92
351.00	1135.65
352.00	1138.34
353.00	1142.73
354.00	1146.74
355.00	1147.41
356.00	1146.03
357.00	1145.34
358.00	1145.78
359.00	1147.90
360.00	1150.85
361.00	1154.34
362.00	1158.48
363.00	1163.00
364.00	1167.85
365.00	1174.08
366.00	1180.99
367.00	1188.58
368.00	1197.06
369.00	1207.04
370.00	1218.01
371.00	1228.95
372.00	1238.85
373.00	1248.82
374.00	1259.25
375.00	1269.33
376.00	1279.37
377.00	1289.62
378.00	1300.80
379.00	1311.87
380.00	1322.73
381.00	1332.60
382.00	1344.31
383.00	1358.16
384.00	1373.73
385.00	1386.39
386.00	1398.46
387.00	1410.01
388.00	1421.26
389.00	1436.97
390.00	1449.93
391.00	1459.50
392.00	1469.69
393.00	1478.06
394.00	1487.59
395.00	1495.65
396.00	1505.03
397.00	1513.21
398.00	1519.31
399.00	1525.11
400.00	1530.05
401.00	1534.14
402.00	1537.87
403.00	1541.40
404.00	1542.62
405.00	1543.25
406.00	1543.48
407.00	1544.88
408.00	1545.24
409.00	1545.60
410.00	1540.82
411.00	1538.12
412.00	1540.85
413.00	1545.02
414.00	1549.67
415.00	1552.58
416.00	1555.28
417.00	1554.40
418.00	1553.60
419.00	1553.01
420.00	1553.75
421.00	1557.23
422.00	1559.93
423.00	1559.16
424.00	1554.43
425.00	1547.91
426.00	1539.98
427.00	1536.23
428.00	1531.04
429.00	1525.89
430.00	1520.69
431.00	1512.98
432.00	1505.82
433.00	1496.60
434.00	1485.54
435.00	1477.59
436.00	1470.06
437.00	1465.29
438.00	1462.67
439.00	1460.73
440.00	1457.97
441.00	1451.85
442.00	1443.76
443.00	1435.30
444.00	1429.34
445.00	1423.77
446.00	1418.93
447.00	1412.74
448.00	1404.32
449.00	1395.10
450.00	1385.26
451.00	1375.88
452.00	1369.15
453.00	1359.31
454.00	1346.84
455.00	1334.96
456.00	1324.95
457.00	1318.24
458.00	1305.57
459.00	1293.36
460.00	1280.74
461.00	1268.93
462.00	1257.79
463.00	1246.59
464.00	1238.49
465.00	1233.47
466.00	1232.62
467.00	1232.64
468.00	1233.63
469.00	1236.07
470.00	1237.69
471.00	1242.69
472.00	1248.66
473.00	1256.22
474.00	1264.48
475.00	1275.93
476.00	1289.46
477.00	1304.90
478.00	1316.33
479.00	1328.87
480.00	1338.15
481.00	1347.22
482.00	1356.75
483.00	1365.26
484.00	1372.92
485.00	1379.44
486.00	1384.44
487.00	1388.67
488.00	1392.79
489.00	1393.26
490.00	1391.68
491.00	1390.09
492.00	1386.08
493.00	1381.33
494.00	1374.01
495.00	1367.42
496.00	1358.45
497.00	1345.13
498.00	1326.29
499.00	1307.39
500.00	1290.39
501.00	1275.83
502.00	1261.91
503.00	1247.91
504.00	1234.75
505.00	1221.02
506.00	1205.89
507.00	1191.07
508.00	1175.93
509.00	1159.35
510.00	1147.86
511.00	1137.39
512.00	1127.73
513.00	1119.32
514.00	1110.54
515.00	1103.41
516.00	1096.86
517.00	1091.77
518.00	1089.06
519.00	1087.21
520.00	1087.56
521.00	1089.39
522.00	1091.67
523.00	1094.22
524.00	1097.96
525.00	1102.98
526.00	1109.70
527.00	1117.11
528.00	1123.93
529.00	1131.00
530.00	1140.50
531.00	1148.44
532.00	1156.30
533.00	1164.66
534.00	1172.31
535.00	1180.47
536.00	1189.09
537.00	1197.24
538.00	1205.78
539.00	1216.40
540.00	1225.55
541.00	1231.51
542.00	1237.49
543.00	1246.48
544.00	1256.44
545.00	1266.56
546.00	1275.82
547.00	1285.95
548.00	1294.38
549.00	1302.89
550.00	1308.90
551.00	1316.87
552.00	1328.97
553.00	1342.43
554.00	1356.36
555.00	1370.64
556.00	1382.99
557.00	1392.90
558.00	1404.50
559.00	1418.72
560.00	1435.03
561.00	1457.79
562.00	1487.39
563.00	1522.64
564.00	1553.30
565.00	1587.64
566.00	1626.87
567.00	1660.33
568.00	1696.26
569.00	1752.10
570.00	1796.47
571.00	1838.74
572.00	1888.43
573.00	1947.04
574.00	1987.18
575.00	2016.48
576.00	2061.21
577.00	2106.07
578.00	2147.17
579.00	2188.53
580.00	2218.82
581.00	2241.84
582.00	2256.36
583.00	2269.40
584.00	2293.52
585.00	2312.52
586.00	2319.36
587.00	2314.99
588.00	2318.77
589.00	2324.56
590.00	2326.06
591.00	2342.09
592.00	2350.24
593.00	2338.11
594.00	2311.29
595.00	2308.56
596.00	2315.74
597.00	2313.67
598.00	2315.57
599.00	2318.65
600.00	2311.37
601.00	2311.15
602.00	2312.52
603.00	2320.41
604.00	2329.18
605.00	2323.72
606.00	2335.11
607.00	2346.49
608.00	2358.94
609.00	2368.99
610.00	2371.21
611.00	2362.92
612.00	2347.27
613.00	2350.12
614.00	2360.06
615.00	2373.06
616.00	2376.22
617.00	2377.91
618.00	2374.17
619.00	2364.96
620.00	2360.47
621.00	2362.90
622.00	2363.83
623.00	2363.00
624.00	2358.77
625.00	2349.84
626.00	2337.80
627.00	2318.53
628.00	2306.01
629.00	2294.00
630.00	2283.43
631.00	2274.81
632.00	2262.63
633.00	2254.78
634.00	2239.36
635.00	2226.98
636.00	2212.74
637.00	2200.51
638.00	2190.49
639.00	2183.45
640.00	2181.03
641.00	2174.77
642.00	2169.13
643.00	2165.43
644.00	2165.79
645.00	2164.16
646.00	2169.68
647.00	2231.52
648.00	2245.13
649.00	2248.79
650.00	2250.75
651.00	2248.28
652.00	2245.49
653.00	2243.28
654.00	2241.97
655.00	2241.21
656.00	2240.06
657.00	2237.26
658.00	2235.76
659.00	2233.83
660.00	2229.01
661.00	2222.10
662.00	2220.82
663.00	2223.01
664.00	2222.04
665.00	2218.33
666.00	2216.80
667.00	2209.66
668.00	2146.71
669.00	2130.57
670.00	2125.99
671.00	2126.74
672.00	2129.45
673.00	2131.86
674.00	2132.93
675.00	2137.13
676.00	2143.83
677.00	2147.84
678.00	2153.30
679.00	2157.25
680.00	2161.34
681.00	2164.32
682.00	2170.39
683.00	2171.29
684.00	2169.79
685.00	2170.17
686.00	2173.64
687.00	2176.65
688.00	2184.60
689.00	2187.79
690.00	2187.29
691.00	2185.08
692.00	2183.22
693.00	2185.37
694.00	2186.61
695.00	2188.63
696.00	2185.73
697.00	2181.67
698.00	2185.28
699.00	2188.68
700.00	2190.86
701.00	2192.51
702.00	2192.99
703.00	2191.25
704.00	2193.57
705.00	2195.70
706.00	2199.16
707.00	2197.38
708.00	2196.76
709.00	2192.42
710.00	2191.40
711.00	2191.18
712.00	2191.41
713.00	2191.62
714.00	2188.25
715.00	2184.96
716.00	2183.88
717.00	2184.15
718.00	2181.42
719.00	2174.62
720.00	2168.26
721.00	2167.58
722.00	2167.74
723.00	2167.79
724.00	2166.64
725.00	2162.88
726.00	2159.60
727.00	2154.86
728.00	2152.55
729.00	2149.75
730.00	2145.32
731.00	2137.48
732.00	2129.14
733.00	2122.00
734.00	2113.15
735.00	2103.50
736.00	2095.34
737.00	2085.00
738.00	2073.70
739.00	2063.10
740.00	2053.86
741.00	2045.48
742.00	2032.70
743.00	2018.58
744.00	2005.84
745.00	1991.54
746.00	1978.54
747.00	1968.79
748.00	1963.61
749.00	1954.57
750.00	1945.19
751.00	1937.25
752.00	1933.46
753.00	1933.72
754.00	1934.60
755.00	1943.97
756.00	1953.19
757.00	1960.63
758.00	1972.90
759.00	1990.48
760.00	2006.81
761.00	2023.68
762.00	2040.31
763.00	2057.99
764.00	2075.25
765.00	2091.66
766.00	2109.01
767.00	2124.90
768.00	2135.75
769.00	2143.85
770.00	2154.63
771.00	2167.41
772.00	2176.09
773.00	2183.63
774.00	2186.22
775.00	2185.60
776.00	2179.14
777.00	2170.94
778.00	2164.68
779.00	2154.36
780.00	2136.59
781.00	2119.67
782.00	2098.72
783.00	2077.82
784.00	2062.46
785.00	2043.66
786.00	2021.83
787.00	1999.15
788.00	1976.97
789.00	1955.29
790.00	1932.20
791.00	1910.64
792.00	1886.64
793.00	1864.41
794.00	1842.92
795.00	1823.62
796.00	1809.02
797.00	1791.43
798.00	1775.60
799.00	1758.10
800.00	1740.20
801.00	1725.28
802.00	1709.49
803.00	1695.71
804.00	1681.58
805.00	1660.34
806.00	1643.84
807.00	1631.31
808.00	1618.82
809.00	1605.99
810.00	1596.23
811.00	1585.37
812.00	1574.28
813.00	1563.64
814.00	1551.99
815.00	1541.60
816.00	1532.35
817.00	1520.74
818.00	1507.99
819.00	1495.48
820.00	1482.95
821.00	1469.72
822.00	1457.20
823.00	1445.18
824.00	1431.66
825.00	1417.83
826.00	1405.01
827.00	1392.02
828.00	1378.13
829.00	1365.34
830.00	1353.09
831.00	1338.16
832.00	1325.15
833.00	1312.73
834.00	1300.30
835.00	1288.56
836.00	1276.00
837.00	1262.64
838.00	1248.06
839.00	1236.22
840.00	1225.05
841.00	1210.29
842.00	1201.30
843.00	1192.28
844.00	1184.18
845.00	1178.06
846.00	1163.17
847.00	1158.73
848.00	1148.05
849.00	1132.74
850.00	1121.35
>>>>>End Processed Spectral Data<<<<<
