SpectraSuite Data File
++++++++++++++++++++++++++++++++++++
Date: Fri Feb 01 13:32:26 GMT-05:00 2013
User: glue
Dark Spectrum Present: No
Reference Spectrum Present: No
Number of Sampled Component Spectra: 1
Spectrometers: USB2G46053
Integration Time (usec): 100000 (USB2G46053)
Spectra Averaged: 50 (USB2G46053)
Boxcar Smoothing: 10 (USB2G46053)
Correct for Electrical Dark: No (USB2G46053)
Strobe/Lamp Enabled: Yes (USB2G46053)
Correct for Detector Non-linearity: No (USB2G46053)
Correct for Stray Light: No (USB2G46053)
Number of Pixels in Processed Spectrum: 651
>>>>>Begin Processed Spectral Data<<<<<
200.00	328.00
201.00	336.19
202.00	339.27
203.00	346.54
204.00	367.76
205.00	376.32
206.00	388.78
207.00	407.32
208.00	415.16
209.00	429.16
210.00	458.53
211.00	474.41
212.00	492.13
213.00	510.36
214.00	529.75
215.00	550.04
216.00	569.99
217.00	591.91
218.00	614.51
219.00	638.32
220.00	661.13
221.00	686.85
222.00	713.64
223.00	739.89
224.00	766.51
225.00	793.72
226.00	821.08
227.00	846.75
228.00	874.47
229.00	900.64
230.00	928.52
231.00	956.23
232.00	982.95
233.00	1008.67
234.00	1035.54
235.00	1062.27
236.00	1087.75
237.00	1112.98
238.00	1138.93
239.00	1162.64
240.00	1186.75
241.00	1212.43
242.00	1238.47
243.00	1258.57
244.00	1282.87
245.00	1308.36
246.00	1329.98
247.00	1350.85
248.00	1373.89
249.00	1395.48
250.00	1415.13
251.00	1434.47
252.00	1454.51
253.00	1473.47
254.00	1490.27
255.00	1504.82
256.00	1518.32
257.00	1531.93
258.00	1545.04
259.00	1556.13
260.00	1568.82
261.00	1577.83
262.00	1586.94
263.00	1593.20
264.00	1601.55
265.00	1605.83
266.00	1607.71
267.00	1612.96
268.00	1617.97
269.00	1619.85
270.00	1620.10
271.00	1620.84
272.00	1619.90
273.00	1619.51
274.00	1619.74
275.00	1620.94
276.00	1622.08
277.00	1623.26
278.00	1624.85
279.00	1628.61
280.00	1630.17
281.00	1630.32
282.00	1632.48
283.00	1632.92
284.00	1633.10
285.00	1636.99
286.00	1638.64
287.00	1642.57
288.00	1645.61
289.00	1649.79
290.00	1655.90
291.00	1662.61
292.00	1671.34
293.00	1681.44
294.00	1690.11
295.00	1700.75
296.00	1711.85
297.00	1723.00
298.00	1734.94
299.00	1746.48
300.00	1756.16
301.00	1768.30
302.00	1781.11
303.00	1792.69
304.00	1805.73
305.00	1817.79
306.00	1828.38
307.00	1840.07
308.00	1851.07
309.00	1860.29
310.00	1869.23
311.00	1877.34
312.00	1884.81
313.00	1890.47
314.00	1895.09
315.00	1899.07
316.00	1899.92
317.00	1900.22
318.00	1900.21
319.00	1899.13
320.00	1898.14
321.00	1898.83
322.00	1896.76
323.00	1894.86
324.00	1893.82
325.00	1891.59
326.00	1890.36
327.00	1888.69
328.00	1887.16
329.00	1884.29
330.00	1881.13
331.00	1873.82
332.00	1863.47
333.00	1854.38
334.00	1852.94
335.00	1855.41
336.00	1858.46
337.00	1861.76
338.00	1862.92
339.00	1864.04
340.00	1864.43
341.00	1864.53
342.00	1863.36
343.00	1863.81
344.00	1863.71
345.00	1863.46
346.00	1863.07
347.00	1861.54
348.00	1860.43
349.00	1859.02
350.00	1857.10
351.00	1856.78
352.00	1860.29
353.00	1866.85
354.00	1872.77
355.00	1872.44
356.00	1868.48
357.00	1865.69
358.00	1865.30
359.00	1867.58
360.00	1871.11
361.00	1875.58
362.00	1880.98
363.00	1887.29
364.00	1894.03
365.00	1902.99
366.00	1913.37
367.00	1924.31
368.00	1936.83
369.00	1951.83
370.00	1968.32
371.00	1985.02
372.00	1999.95
373.00	2014.73
374.00	2030.33
375.00	2045.42
376.00	2060.26
377.00	2075.59
378.00	2091.92
379.00	2107.91
380.00	2124.09
381.00	2138.34
382.00	2155.69
383.00	2176.05
384.00	2199.26
385.00	2217.22
386.00	2234.34
387.00	2250.61
388.00	2266.44
389.00	2289.59
390.00	2308.15
391.00	2321.30
392.00	2335.26
393.00	2346.24
394.00	2358.94
395.00	2369.40
396.00	2382.16
397.00	2393.09
398.00	2400.79
399.00	2407.68
400.00	2413.01
401.00	2416.98
402.00	2420.34
403.00	2423.37
404.00	2423.34
405.00	2421.72
406.00	2420.15
407.00	2420.22
408.00	2418.54
409.00	2416.87
410.00	2407.03
411.00	2400.61
412.00	2402.84
413.00	2407.39
414.00	2413.17
415.00	2416.21
416.00	2418.83
417.00	2415.67
418.00	2412.83
419.00	2409.98
420.00	2409.90
421.00	2414.15
422.00	2417.00
423.00	2414.99
424.00	2406.67
425.00	2395.23
426.00	2381.95
427.00	2375.44
428.00	2366.76
429.00	2357.98
430.00	2349.40
431.00	2336.79
432.00	2324.96
433.00	2309.85
434.00	2292.32
435.00	2279.54
436.00	2267.41
437.00	2259.83
438.00	2255.43
439.00	2252.37
440.00	2248.21
441.00	2238.76
442.00	2226.12
443.00	2212.97
444.00	2203.95
445.00	2195.61
446.00	2188.34
447.00	2178.74
448.00	2165.79
449.00	2151.75
450.00	2136.68
451.00	2122.50
452.00	2112.81
453.00	2098.12
454.00	2079.15
455.00	2061.10
456.00	2046.33
457.00	2037.47
458.00	2019.00
459.00	2001.79
460.00	1983.46
461.00	1966.64
462.00	1950.97
463.00	1935.76
464.00	1925.62
465.00	1920.46
466.00	1922.57
467.00	1926.62
468.00	1932.34
469.00	1940.57
470.00	1947.69
471.00	1960.92
472.00	1976.25
473.00	1994.25
474.00	2013.98
475.00	2039.88
476.00	2069.67
477.00	2103.33
478.00	2130.71
479.00	2160.11
480.00	2184.14
481.00	2208.61
482.00	2234.14
483.00	2258.40
484.00	2282.02
485.00	2304.04
486.00	2323.84
487.00	2343.05
488.00	2362.74
489.00	2376.33
490.00	2386.49
491.00	2397.03
492.00	2403.77
493.00	2409.71
494.00	2411.71
495.00	2414.94
496.00	2413.80
497.00	2405.03
498.00	2386.56
499.00	2367.68
500.00	2351.94
501.00	2339.98
502.00	2329.13
503.00	2317.47
504.00	2306.90
505.00	2294.78
506.00	2279.40
507.00	2263.83
508.00	2247.75
509.00	2228.00
510.00	2217.46
511.00	2208.37
512.00	2199.51
513.00	2192.53
514.00	2183.70
515.00	2177.33
516.00	2171.31
517.00	2167.27
518.00	2166.88
519.00	2167.00
520.00	2170.75
521.00	2176.25
522.00	2181.33
523.00	2185.67
524.00	2191.41
525.00	2198.61
526.00	2207.93
527.00	2217.75
528.00	2225.32
529.00	2231.78
530.00	2242.04
531.00	2247.79
532.00	2251.96
533.00	2256.41
534.00	2258.03
535.00	2260.05
536.00	2261.33
537.00	2261.01
538.00	2260.17
539.00	2262.05
540.00	2260.82
541.00	2253.04
542.00	2244.18
543.00	2240.45
544.00	2237.91
545.00	2235.14
546.00	2230.25
547.00	2225.95
548.00	2218.74
549.00	2212.09
550.00	2201.12
551.00	2192.21
552.00	2189.89
553.00	2189.96
554.00	2190.52
555.00	2191.81
556.00	2189.83
557.00	2184.10
558.00	2181.04
559.00	2181.78
560.00	2184.51
561.00	2197.43
562.00	2220.25
563.00	2251.34
564.00	2275.08
565.00	2303.36
566.00	2338.20
567.00	2365.38
568.00	2395.51
569.00	2452.53
570.00	2494.93
571.00	2534.69
572.00	2583.05
573.00	2641.81
574.00	2677.35
575.00	2699.28
576.00	2740.93
577.00	2782.85
578.00	2820.84
579.00	2859.02
580.00	2882.85
581.00	2897.20
582.00	2900.30
583.00	2901.30
584.00	2914.80
585.00	2923.66
586.00	2917.37
587.00	2897.45
588.00	2888.38
589.00	2881.19
590.00	2867.57
591.00	2872.67
592.00	2869.42
593.00	2841.75
594.00	2796.24
595.00	2780.61
596.00	2778.11
597.00	2763.20
598.00	2753.80
599.00	2746.44
600.00	2727.09
601.00	2717.00
602.00	2709.69
603.00	2710.47
604.00	2711.86
605.00	2696.32
606.00	2699.83
607.00	2704.43
608.00	2710.84
609.00	2714.66
610.00	2709.72
611.00	2692.31
612.00	2666.88
613.00	2662.56
614.00	2667.19
615.00	2675.20
616.00	2672.58
617.00	2668.10
618.00	2658.17
619.00	2641.64
620.00	2630.64
621.00	2627.82
622.00	2623.85
623.00	2617.94
624.00	2608.25
625.00	2593.63
626.00	2575.66
627.00	2549.56
628.00	2531.25
629.00	2513.78
630.00	2497.84
631.00	2484.53
632.00	2467.25
633.00	2455.07
634.00	2434.64
635.00	2417.44
636.00	2398.27
637.00	2381.64
638.00	2367.53
639.00	2356.47
640.00	2350.99
641.00	2341.31
642.00	2332.59
643.00	2325.90
644.00	2323.56
645.00	2318.99
646.00	2322.23
647.00	2385.07
648.00	2397.08
649.00	2398.29
650.00	2397.95
651.00	2393.32
652.00	2387.90
653.00	2383.42
654.00	2379.75
655.00	2376.77
656.00	2373.90
657.00	2369.29
658.00	2365.79
659.00	2362.06
660.00	2355.28
661.00	2346.15
662.00	2343.08
663.00	2343.63
664.00	2340.90
665.00	2335.52
666.00	2332.38
667.00	2323.28
668.00	2255.25
669.00	2236.58
670.00	2230.39
671.00	2229.82
672.00	2231.26
673.00	2232.56
674.00	2232.20
675.00	2235.13
676.00	2240.89
677.00	2243.82
678.00	2248.35
679.00	2251.33
680.00	2254.69
681.00	2256.40
682.00	2261.72
683.00	2261.43
684.00	2258.78
685.00	2258.04
686.00	2260.39
687.00	2262.51
688.00	2269.67
689.00	2271.92
690.00	2270.62
691.00	2267.54
692.00	2264.70
693.00	2266.01
694.00	2266.59
695.00	2268.04
696.00	2264.65
697.00	2259.83
698.00	2262.64
699.00	2265.33
700.00	2266.69
701.00	2267.48
702.00	2267.27
703.00	2264.52
704.00	2266.21
705.00	2267.74
706.00	2270.74
707.00	2268.26
708.00	2267.13
709.00	2262.25
710.00	2260.71
711.00	2259.69
712.00	2259.13
713.00	2258.85
714.00	2254.78
715.00	2250.67
716.00	2249.01
717.00	2248.54
718.00	2245.13
719.00	2237.46
720.00	2230.66
721.00	2229.41
722.00	2228.93
723.00	2228.54
724.00	2227.01
725.00	2222.57
726.00	2218.60
727.00	2213.20
728.00	2210.25
729.00	2207.14
730.00	2201.92
731.00	2193.45
732.00	2184.80
733.00	2177.37
734.00	2168.09
735.00	2157.69
736.00	2148.98
737.00	2137.99
738.00	2126.13
739.00	2114.67
740.00	2104.97
741.00	2095.88
742.00	2082.68
743.00	2068.08
744.00	2054.60
745.00	2039.48
746.00	2026.01
747.00	2015.68
748.00	2009.94
749.00	2000.49
750.00	1990.35
751.00	1982.05
752.00	1977.78
753.00	1977.34
754.00	1977.71
755.00	1986.73
756.00	1996.23
757.00	2003.51
758.00	2015.81
759.00	2033.36
760.00	2049.81
761.00	2066.62
762.00	2083.21
763.00	2100.81
764.00	2118.18
765.00	2134.60
766.00	2152.29
767.00	2168.22
768.00	2179.06
769.00	2186.98
770.00	2197.47
771.00	2210.26
772.00	2218.87
773.00	2226.40
774.00	2228.90
775.00	2228.08
776.00	2221.40
777.00	2212.55
778.00	2206.12
779.00	2195.39
780.00	2176.88
781.00	2159.50
782.00	2137.91
783.00	2116.44
784.00	2100.50
785.00	2081.06
786.00	2058.48
787.00	2034.86
788.00	2012.08
789.00	1989.79
790.00	1966.20
791.00	1944.30
792.00	1919.75
793.00	1896.89
794.00	1874.55
795.00	1854.94
796.00	1839.96
797.00	1821.93
798.00	1805.71
799.00	1787.54
800.00	1769.00
801.00	1753.95
802.00	1737.71
803.00	1723.57
804.00	1709.05
805.00	1687.35
806.00	1670.46
807.00	1657.88
808.00	1644.93
809.00	1631.52
810.00	1621.42
811.00	1610.46
812.00	1599.07
813.00	1588.18
814.00	1576.24
815.00	1565.69
816.00	1556.02
817.00	1544.15
818.00	1530.97
819.00	1518.13
820.00	1505.32
821.00	1491.63
822.00	1478.64
823.00	1466.38
824.00	1452.44
825.00	1438.19
826.00	1425.10
827.00	1411.70
828.00	1397.45
829.00	1384.72
830.00	1372.29
831.00	1357.20
832.00	1343.82
833.00	1331.13
834.00	1318.25
835.00	1306.05
836.00	1293.10
837.00	1279.49
838.00	1264.42
839.00	1252.37
840.00	1240.98
841.00	1229.13
842.00	1218.09
843.00	1208.22
844.00	1198.75
845.00	1189.82
846.00	1174.74
847.00	1175.00
848.00	1160.80
849.00	1148.17
850.00	1136.54
>>>>>End Processed Spectral Data<<<<<
