SpectraSuite Data File
++++++++++++++++++++++++++++++++++++
Date: Fri Feb 01 13:34:10 GMT-05:00 2013
User: glue
Dark Spectrum Present: No
Reference Spectrum Present: No
Number of Sampled Component Spectra: 1
Spectrometers: USB2G46053
Integration Time (usec): 100000 (USB2G46053)
Spectra Averaged: 50 (USB2G46053)
Boxcar Smoothing: 10 (USB2G46053)
Correct for Electrical Dark: No (USB2G46053)
Strobe/Lamp Enabled: Yes (USB2G46053)
Correct for Detector Non-linearity: No (USB2G46053)
Correct for Stray Light: No (USB2G46053)
Number of Pixels in Processed Spectrum: 651
>>>>>Begin Processed Spectral Data<<<<<
200.00	251.30
201.00	253.17
202.00	255.23
203.00	257.19
204.00	263.96
205.00	266.83
206.00	271.22
207.00	276.52
208.00	278.72
209.00	284.00
210.00	295.60
211.00	301.35
212.00	307.77
213.00	314.40
214.00	321.49
215.00	328.94
216.00	336.39
217.00	344.47
218.00	352.92
219.00	361.93
220.00	370.67
221.00	380.41
222.00	390.45
223.00	400.38
224.00	410.52
225.00	420.84
226.00	431.29
227.00	441.15
228.00	451.66
229.00	461.63
230.00	472.08
231.00	482.63
232.00	492.66
233.00	502.63
234.00	512.90
235.00	522.93
236.00	532.63
237.00	542.14
238.00	551.95
239.00	561.00
240.00	570.16
241.00	579.80
242.00	589.65
243.00	597.57
244.00	606.95
245.00	616.62
246.00	625.12
247.00	633.30
248.00	642.50
249.00	651.28
250.00	659.50
251.00	667.76
252.00	676.31
253.00	684.60
254.00	692.11
255.00	699.01
256.00	706.00
257.00	713.05
258.00	720.05
259.00	726.53
260.00	733.83
261.00	739.84
262.00	746.23
263.00	751.72
264.00	758.04
265.00	763.20
266.00	767.76
267.00	773.53
268.00	779.45
269.00	784.13
270.00	788.39
271.00	792.77
272.00	796.65
273.00	800.90
274.00	805.64
275.00	810.47
276.00	815.35
277.00	820.18
278.00	825.33
279.00	831.57
280.00	836.88
281.00	841.42
282.00	846.65
283.00	851.24
284.00	855.80
285.00	861.86
286.00	866.79
287.00	872.69
288.00	878.40
289.00	884.38
290.00	891.22
291.00	898.27
292.00	906.18
293.00	914.78
294.00	922.70
295.00	931.34
296.00	940.40
297.00	949.34
298.00	958.72
299.00	967.89
300.00	976.12
301.00	985.50
302.00	995.30
303.00	1004.48
304.00	1014.10
305.00	1023.42
306.00	1031.98
307.00	1041.10
308.00	1049.76
309.00	1057.45
310.00	1065.17
311.00	1072.19
312.00	1078.95
313.00	1084.93
314.00	1090.31
315.00	1095.28
316.00	1098.69
317.00	1101.74
318.00	1104.45
319.00	1106.52
320.00	1108.71
321.00	1111.47
322.00	1112.93
323.00	1114.34
324.00	1116.22
325.00	1117.37
326.00	1118.91
327.00	1120.21
328.00	1121.31
329.00	1121.93
330.00	1122.17
331.00	1120.04
332.00	1116.20
333.00	1112.96
334.00	1113.81
335.00	1116.82
336.00	1119.90
337.00	1123.11
338.00	1125.08
339.00	1126.83
340.00	1128.28
341.00	1129.36
342.00	1129.95
343.00	1131.24
344.00	1132.17
345.00	1133.09
346.00	1133.86
347.00	1133.92
348.00	1134.05
349.00	1134.04
350.00	1133.73
351.00	1134.45
352.00	1137.15
353.00	1141.61
354.00	1145.74
355.00	1146.34
356.00	1144.88
357.00	1144.04
358.00	1144.45
359.00	1146.63
360.00	1149.74
361.00	1153.30
362.00	1157.42
363.00	1162.08
364.00	1166.96
365.00	1173.25
366.00	1180.18
367.00	1187.73
368.00	1196.13
369.00	1206.23
370.00	1217.31
371.00	1228.15
372.00	1237.91
373.00	1247.84
374.00	1258.25
375.00	1268.41
376.00	1278.54
377.00	1288.90
378.00	1300.14
379.00	1311.36
380.00	1322.27
381.00	1332.00
382.00	1343.66
383.00	1357.45
384.00	1373.07
385.00	1385.51
386.00	1397.42
387.00	1408.90
388.00	1420.05
389.00	1435.85
390.00	1448.68
391.00	1458.13
392.00	1468.33
393.00	1476.65
394.00	1485.92
395.00	1493.98
396.00	1503.26
397.00	1511.27
398.00	1517.35
399.00	1523.14
400.00	1527.88
401.00	1531.88
402.00	1535.59
403.00	1539.05
404.00	1540.34
405.00	1540.73
406.00	1541.18
407.00	1542.56
408.00	1543.02
409.00	1543.52
410.00	1538.56
411.00	1535.89
412.00	1538.75
413.00	1542.94
414.00	1547.68
415.00	1550.75
416.00	1553.43
417.00	1552.43
418.00	1551.70
419.00	1550.88
420.00	1551.77
421.00	1555.24
422.00	1557.86
423.00	1557.37
424.00	1552.88
425.00	1546.48
426.00	1538.56
427.00	1535.02
428.00	1530.04
429.00	1524.83
430.00	1519.57
431.00	1512.25
432.00	1505.11
433.00	1495.79
434.00	1484.86
435.00	1476.97
436.00	1469.49
437.00	1464.72
438.00	1462.09
439.00	1460.06
440.00	1457.46
441.00	1451.17
442.00	1443.10
443.00	1434.59
444.00	1428.50
445.00	1422.75
446.00	1417.86
447.00	1411.74
448.00	1403.16
449.00	1393.81
450.00	1383.92
451.00	1374.42
452.00	1367.52
453.00	1357.78
454.00	1345.31
455.00	1333.24
456.00	1323.24
457.00	1316.53
458.00	1303.85
459.00	1291.73
460.00	1279.10
461.00	1267.31
462.00	1256.25
463.00	1245.22
464.00	1237.01
465.00	1231.91
466.00	1231.15
467.00	1231.23
468.00	1232.17
469.00	1234.59
470.00	1236.27
471.00	1241.15
472.00	1247.38
473.00	1254.81
474.00	1263.00
475.00	1274.59
476.00	1288.23
477.00	1303.62
478.00	1315.03
479.00	1327.67
480.00	1336.99
481.00	1346.03
482.00	1355.46
483.00	1363.95
484.00	1371.53
485.00	1378.20
486.00	1383.12
487.00	1387.30
488.00	1391.21
489.00	1391.53
490.00	1389.83
491.00	1388.29
492.00	1384.63
493.00	1379.68
494.00	1372.46
495.00	1365.87
496.00	1356.79
497.00	1343.52
498.00	1324.64
499.00	1305.60
500.00	1288.54
501.00	1273.96
502.00	1260.20
503.00	1246.29
504.00	1233.16
505.00	1219.57
506.00	1204.53
507.00	1189.72
508.00	1174.52
509.00	1158.09
510.00	1146.74
511.00	1136.46
512.00	1126.65
513.00	1118.07
514.00	1109.23
515.00	1101.96
516.00	1095.30
517.00	1090.19
518.00	1087.49
519.00	1085.54
520.00	1086.00
521.00	1087.93
522.00	1090.18
523.00	1092.53
524.00	1096.16
525.00	1101.01
526.00	1107.52
527.00	1114.90
528.00	1121.78
529.00	1128.71
530.00	1137.89
531.00	1145.75
532.00	1153.41
533.00	1161.71
534.00	1169.24
535.00	1177.47
536.00	1185.99
537.00	1194.16
538.00	1202.49
539.00	1212.92
540.00	1221.99
541.00	1227.92
542.00	1233.63
543.00	1242.57
544.00	1252.43
545.00	1262.61
546.00	1271.93
547.00	1282.04
548.00	1290.19
549.00	1298.58
550.00	1304.87
551.00	1312.96
552.00	1324.95
553.00	1338.46
554.00	1352.22
555.00	1366.38
556.00	1378.51
557.00	1388.47
558.00	1400.00
559.00	1414.25
560.00	1430.34
561.00	1452.98
562.00	1482.40
563.00	1517.69
564.00	1548.20
565.00	1582.48
566.00	1621.40
567.00	1654.42
568.00	1690.23
569.00	1746.04
570.00	1790.28
571.00	1832.36
572.00	1881.87
573.00	1940.38
574.00	1980.30
575.00	2009.58
576.00	2054.46
577.00	2099.19
578.00	2140.26
579.00	2181.64
580.00	2211.74
581.00	2234.65
582.00	2249.24
583.00	2262.08
584.00	2285.88
585.00	2304.77
586.00	2311.69
587.00	2307.68
588.00	2311.69
589.00	2317.23
590.00	2318.93
591.00	2335.20
592.00	2343.33
593.00	2331.18
594.00	2304.33
595.00	2301.58
596.00	2308.71
597.00	2306.32
598.00	2308.35
599.00	2311.28
600.00	2303.91
601.00	2303.64
602.00	2305.22
603.00	2313.07
604.00	2322.07
605.00	2316.48
606.00	2328.02
607.00	2339.30
608.00	2351.40
609.00	2361.42
610.00	2363.75
611.00	2355.09
612.00	2338.99
613.00	2341.55
614.00	2351.68
615.00	2364.52
616.00	2367.90
617.00	2369.45
618.00	2366.07
619.00	2356.78
620.00	2352.18
621.00	2354.26
622.00	2355.27
623.00	2354.30
624.00	2349.90
625.00	2341.02
626.00	2329.15
627.00	2309.77
628.00	2297.21
629.00	2285.06
630.00	2274.47
631.00	2265.81
632.00	2253.79
633.00	2246.09
634.00	2230.79
635.00	2218.21
636.00	2203.95
637.00	2191.72
638.00	2181.80
639.00	2174.35
640.00	2172.06
641.00	2165.93
642.00	2160.58
643.00	2157.07
644.00	2157.42
645.00	2155.89
646.00	2161.34
647.00	2222.81
648.00	2236.27
649.00	2239.82
650.00	2241.98
651.00	2239.56
652.00	2236.70
653.00	2234.55
654.00	2233.21
655.00	2232.51
656.00	2231.36
657.00	2228.50
658.00	2226.70
659.00	2224.99
660.00	2220.24
661.00	2213.24
662.00	2211.73
663.00	2213.86
664.00	2212.77
665.00	2209.26
666.00	2207.63
667.00	2200.24
668.00	2137.63
669.00	2121.61
670.00	2117.01
671.00	2117.64
672.00	2120.37
673.00	2123.02
674.00	2123.99
675.00	2128.14
676.00	2134.74
677.00	2138.93
678.00	2144.60
679.00	2148.57
680.00	2152.80
681.00	2155.87
682.00	2161.87
683.00	2162.97
684.00	2161.64
685.00	2161.85
686.00	2164.98
687.00	2168.10
688.00	2176.12
689.00	2179.48
690.00	2179.00
691.00	2176.95
692.00	2175.09
693.00	2177.04
694.00	2178.14
695.00	2180.16
696.00	2177.44
697.00	2173.58
698.00	2177.06
699.00	2180.55
700.00	2182.77
701.00	2184.14
702.00	2184.54
703.00	2182.82
704.00	2185.10
705.00	2187.15
706.00	2190.81
707.00	2189.23
708.00	2188.67
709.00	2184.38
710.00	2183.38
711.00	2183.03
712.00	2183.20
713.00	2183.50
714.00	2180.24
715.00	2176.98
716.00	2176.23
717.00	2176.41
718.00	2173.54
719.00	2166.63
720.00	2160.21
721.00	2159.38
722.00	2159.41
723.00	2159.55
724.00	2158.44
725.00	2154.64
726.00	2151.28
727.00	2146.49
728.00	2144.04
729.00	2141.28
730.00	2136.81
731.00	2128.82
732.00	2120.87
733.00	2113.79
734.00	2105.26
735.00	2095.68
736.00	2087.56
737.00	2077.05
738.00	2065.92
739.00	2055.32
740.00	2046.29
741.00	2038.13
742.00	2025.69
743.00	2011.63
744.00	1998.77
745.00	1984.47
746.00	1971.57
747.00	1961.96
748.00	1956.67
749.00	1947.81
750.00	1938.39
751.00	1930.68
752.00	1926.87
753.00	1926.74
754.00	1927.72
755.00	1936.85
756.00	1946.32
757.00	1953.59
758.00	1965.78
759.00	1983.28
760.00	1999.60
761.00	2016.29
762.00	2032.85
763.00	2050.37
764.00	2067.76
765.00	2084.17
766.00	2101.64
767.00	2117.42
768.00	2128.21
769.00	2136.11
770.00	2146.62
771.00	2159.34
772.00	2167.91
773.00	2175.38
774.00	2178.01
775.00	2177.35
776.00	2170.78
777.00	2162.55
778.00	2156.40
779.00	2146.10
780.00	2128.16
781.00	2111.36
782.00	2090.45
783.00	2069.38
784.00	2053.98
785.00	2035.43
786.00	2013.58
787.00	1990.79
788.00	1968.90
789.00	1947.38
790.00	1924.63
791.00	1903.40
792.00	1879.57
793.00	1857.42
794.00	1836.20
795.00	1817.24
796.00	1802.53
797.00	1785.16
798.00	1769.29
799.00	1751.84
800.00	1733.71
801.00	1719.08
802.00	1703.31
803.00	1689.58
804.00	1675.58
805.00	1654.33
806.00	1637.76
807.00	1625.26
808.00	1612.75
809.00	1599.75
810.00	1589.76
811.00	1578.92
812.00	1567.82
813.00	1557.18
814.00	1545.53
815.00	1534.89
816.00	1525.50
817.00	1514.08
818.00	1501.33
819.00	1488.76
820.00	1476.43
821.00	1463.60
822.00	1450.95
823.00	1438.88
824.00	1425.48
825.00	1411.62
826.00	1399.02
827.00	1386.00
828.00	1372.28
829.00	1359.79
830.00	1347.76
831.00	1333.12
832.00	1320.17
833.00	1307.96
834.00	1295.56
835.00	1283.73
836.00	1271.31
837.00	1257.96
838.00	1243.38
839.00	1231.62
840.00	1220.42
841.00	1208.84
842.00	1195.47
843.00	1190.93
844.00	1179.72
845.00	1170.30
846.00	1157.10
847.00	1153.06
848.00	1142.40
849.00	1129.90
850.00	1115.71
>>>>>End Processed Spectral Data<<<<<
