SpectraSuite Data File
++++++++++++++++++++++++++++++++++++
Date: Fri Feb 01 13:32:47 GMT-05:00 2013
User: glue
Dark Spectrum Present: No
Reference Spectrum Present: No
Number of Sampled Component Spectra: 1
Spectrometers: USB2G46053
Integration Time (usec): 100000 (USB2G46053)
Spectra Averaged: 50 (USB2G46053)
Boxcar Smoothing: 10 (USB2G46053)
Correct for Electrical Dark: No (USB2G46053)
Strobe/Lamp Enabled: Yes (USB2G46053)
Correct for Detector Non-linearity: No (USB2G46053)
Correct for Stray Light: No (USB2G46053)
Number of Pixels in Processed Spectrum: 651
>>>>>Begin Processed Spectral Data<<<<<
200.00	290.04
201.00	294.39
202.00	298.78
203.00	300.74
204.00	315.16
205.00	322.15
206.00	331.06
207.00	342.69
208.00	346.36
209.00	356.31
210.00	376.94
211.00	387.71
212.00	399.72
213.00	412.01
214.00	425.25
215.00	439.04
216.00	452.63
217.00	467.50
218.00	482.86
219.00	499.15
220.00	514.77
221.00	532.35
222.00	550.68
223.00	568.62
224.00	586.89
225.00	605.48
226.00	624.30
227.00	641.94
228.00	660.99
229.00	678.91
230.00	698.10
231.00	717.13
232.00	735.32
233.00	752.97
234.00	771.44
235.00	789.73
236.00	807.16
237.00	824.37
238.00	842.09
239.00	858.32
240.00	874.92
241.00	892.61
242.00	910.44
243.00	924.39
244.00	941.04
245.00	958.39
246.00	973.38
247.00	987.80
248.00	1003.86
249.00	1018.87
250.00	1032.80
251.00	1046.35
252.00	1060.58
253.00	1074.11
254.00	1086.24
255.00	1096.93
256.00	1106.98
257.00	1117.33
258.00	1127.30
259.00	1136.11
260.00	1146.08
261.00	1153.40
262.00	1161.08
263.00	1166.91
264.00	1174.05
265.00	1178.75
266.00	1181.99
267.00	1187.43
268.00	1192.70
269.00	1195.85
270.00	1198.18
271.00	1200.57
272.00	1202.09
273.00	1203.83
274.00	1206.17
275.00	1209.26
276.00	1212.16
277.00	1215.10
278.00	1218.25
279.00	1223.10
280.00	1226.40
281.00	1228.73
282.00	1232.51
283.00	1234.83
284.00	1237.14
285.00	1242.05
286.00	1245.21
287.00	1250.16
288.00	1254.32
289.00	1259.34
290.00	1265.76
291.00	1272.43
292.00	1280.69
293.00	1289.79
294.00	1297.99
295.00	1307.63
296.00	1317.49
297.00	1327.36
298.00	1337.82
299.00	1348.15
300.00	1357.07
301.00	1367.51
302.00	1378.58
303.00	1388.75
304.00	1400.08
305.00	1410.63
306.00	1420.04
307.00	1430.36
308.00	1439.98
309.00	1448.38
310.00	1456.60
311.00	1464.07
312.00	1471.03
313.00	1476.72
314.00	1481.67
315.00	1486.17
316.00	1488.29
317.00	1489.76
318.00	1491.01
319.00	1491.53
320.00	1492.12
321.00	1493.77
322.00	1493.66
323.00	1493.52
324.00	1493.95
325.00	1493.23
326.00	1493.37
327.00	1493.31
328.00	1493.09
329.00	1491.91
330.00	1490.54
331.00	1485.86
332.00	1478.83
333.00	1472.78
334.00	1472.50
335.00	1475.29
336.00	1478.20
337.00	1481.33
338.00	1483.07
339.00	1484.61
340.00	1485.52
341.00	1486.10
342.00	1485.77
343.00	1486.61
344.00	1486.97
345.00	1487.29
346.00	1487.51
347.00	1486.74
348.00	1486.16
349.00	1485.41
350.00	1484.30
351.00	1484.49
352.00	1487.73
353.00	1493.10
354.00	1498.02
355.00	1498.27
356.00	1495.60
357.00	1493.82
358.00	1493.82
359.00	1495.92
360.00	1499.08
361.00	1503.04
362.00	1507.76
363.00	1513.29
364.00	1519.02
365.00	1526.56
366.00	1535.13
367.00	1544.38
368.00	1554.92
369.00	1567.49
370.00	1581.08
371.00	1594.76
372.00	1607.03
373.00	1619.08
374.00	1631.95
375.00	1644.39
376.00	1656.68
377.00	1669.37
378.00	1683.17
379.00	1696.59
380.00	1710.00
381.00	1721.94
382.00	1736.32
383.00	1753.38
384.00	1772.56
385.00	1787.65
386.00	1801.96
387.00	1815.69
388.00	1829.01
389.00	1847.97
390.00	1863.40
391.00	1874.71
392.00	1886.69
393.00	1896.21
394.00	1907.24
395.00	1916.50
396.00	1927.68
397.00	1937.09
398.00	1943.89
399.00	1950.25
400.00	1955.38
401.00	1959.25
402.00	1962.86
403.00	1966.18
404.00	1966.69
405.00	1966.18
406.00	1965.61
407.00	1966.32
408.00	1965.56
409.00	1964.91
410.00	1957.75
411.00	1953.20
412.00	1955.70
413.00	1959.79
414.00	1965.00
415.00	1967.86
416.00	1970.46
417.00	1968.23
418.00	1966.30
419.00	1964.52
420.00	1964.83
421.00	1968.66
422.00	1971.55
423.00	1970.35
424.00	1964.00
425.00	1955.07
426.00	1944.53
427.00	1939.54
428.00	1932.77
429.00	1925.95
430.00	1919.12
431.00	1909.20
432.00	1899.86
433.00	1887.75
434.00	1873.73
435.00	1863.63
436.00	1853.91
437.00	1847.75
438.00	1844.24
439.00	1841.79
440.00	1838.47
441.00	1830.74
442.00	1820.35
443.00	1809.45
444.00	1801.79
445.00	1794.67
446.00	1788.78
447.00	1780.96
448.00	1770.35
449.00	1758.90
450.00	1746.57
451.00	1734.88
452.00	1726.70
453.00	1714.55
454.00	1699.03
455.00	1684.16
456.00	1671.65
457.00	1663.85
458.00	1648.47
459.00	1633.82
460.00	1618.50
461.00	1604.25
462.00	1590.88
463.00	1577.74
464.00	1568.70
465.00	1563.51
466.00	1564.13
467.00	1565.84
468.00	1569.11
469.00	1574.18
470.00	1578.22
471.00	1587.11
472.00	1597.52
473.00	1610.04
474.00	1623.71
475.00	1642.06
476.00	1663.50
477.00	1687.65
478.00	1706.80
479.00	1727.32
480.00	1743.86
481.00	1760.35
482.00	1777.31
483.00	1793.39
484.00	1808.73
485.00	1822.80
486.00	1835.20
487.00	1846.67
488.00	1858.37
489.00	1865.32
490.00	1869.43
491.00	1873.92
492.00	1875.35
493.00	1875.90
494.00	1873.34
495.00	1871.67
496.00	1866.67
497.00	1855.80
498.00	1837.33
499.00	1818.66
500.00	1802.72
501.00	1789.63
502.00	1777.58
503.00	1765.38
504.00	1753.75
505.00	1741.31
506.00	1726.49
507.00	1711.60
508.00	1696.30
509.00	1678.61
510.00	1667.85
511.00	1658.54
512.00	1649.66
513.00	1642.18
514.00	1633.86
515.00	1627.37
516.00	1621.49
517.00	1617.42
518.00	1616.17
519.00	1615.72
520.00	1618.13
521.00	1622.15
522.00	1626.19
523.00	1629.88
524.00	1634.83
525.00	1641.31
526.00	1649.49
527.00	1658.52
528.00	1665.92
529.00	1673.16
530.00	1683.44
531.00	1690.75
532.00	1697.23
533.00	1704.03
534.00	1709.18
535.00	1714.64
536.00	1720.03
537.00	1724.41
538.00	1728.71
539.00	1735.51
540.00	1740.00
541.00	1739.73
542.00	1738.73
543.00	1741.89
544.00	1746.17
545.00	1750.34
546.00	1753.05
547.00	1756.63
548.00	1757.71
549.00	1759.25
550.00	1757.43
551.00	1757.43
552.00	1762.74
553.00	1770.05
554.00	1777.92
555.00	1786.20
556.00	1792.05
557.00	1794.80
558.00	1799.65
559.00	1807.54
560.00	1817.53
561.00	1835.88
562.00	1862.53
563.00	1896.12
564.00	1923.78
565.00	1955.62
566.00	1993.32
567.00	2024.03
568.00	2057.54
569.00	2114.62
570.00	2158.33
571.00	2199.93
572.00	2249.64
573.00	2309.07
574.00	2347.24
575.00	2373.16
576.00	2417.00
577.00	2460.70
578.00	2500.49
579.00	2540.59
580.00	2567.77
581.00	2586.61
582.00	2595.56
583.00	2602.50
584.00	2621.46
585.00	2635.50
586.00	2635.80
587.00	2623.45
588.00	2620.64
589.00	2619.84
590.00	2613.58
591.00	2624.35
592.00	2626.38
593.00	2606.06
594.00	2569.41
595.00	2559.89
596.00	2561.94
597.00	2552.90
598.00	2548.69
599.00	2546.34
600.00	2532.77
601.00	2527.45
602.00	2524.06
603.00	2528.05
604.00	2533.16
605.00	2522.25
606.00	2529.61
607.00	2537.28
608.00	2546.54
609.00	2553.46
610.00	2551.92
611.00	2538.67
612.00	2517.77
613.00	2516.84
614.00	2523.90
615.00	2534.16
616.00	2534.44
617.00	2532.74
618.00	2525.65
619.00	2512.67
620.00	2504.53
621.00	2504.08
622.00	2502.38
623.00	2498.88
624.00	2491.62
625.00	2479.60
626.00	2464.59
627.00	2441.56
628.00	2425.93
629.00	2411.03
630.00	2397.63
631.00	2386.40
632.00	2371.57
633.00	2361.33
634.00	2343.23
635.00	2328.32
636.00	2311.42
637.00	2296.73
638.00	2284.49
639.00	2275.25
640.00	2271.10
641.00	2263.06
642.00	2255.75
643.00	2250.68
644.00	2249.57
645.00	2246.48
646.00	2250.69
647.00	2312.77
648.00	2325.36
649.00	2327.54
650.00	2328.14
651.00	2324.54
652.00	2320.31
653.00	2316.86
654.00	2314.37
655.00	2312.46
656.00	2310.21
657.00	2306.65
658.00	2304.12
659.00	2301.45
660.00	2295.67
661.00	2287.75
662.00	2285.29
663.00	2286.53
664.00	2284.56
665.00	2280.19
666.00	2277.77
667.00	2269.48
668.00	2204.01
669.00	2186.57
670.00	2181.27
671.00	2181.19
672.00	2183.18
673.00	2185.18
674.00	2185.43
675.00	2188.78
676.00	2194.88
677.00	2198.47
678.00	2203.26
679.00	2206.35
680.00	2209.93
681.00	2212.18
682.00	2217.75
683.00	2218.23
684.00	2216.28
685.00	2215.80
686.00	2218.49
687.00	2221.08
688.00	2228.61
689.00	2231.27
690.00	2230.31
691.00	2227.49
692.00	2225.27
693.00	2226.90
694.00	2227.60
695.00	2229.22
696.00	2226.09
697.00	2221.88
698.00	2225.19
699.00	2228.07
700.00	2230.12
701.00	2231.25
702.00	2231.25
703.00	2228.99
704.00	2230.88
705.00	2232.63
706.00	2235.95
707.00	2233.85
708.00	2233.01
709.00	2228.42
710.00	2227.08
711.00	2226.57
712.00	2226.60
713.00	2226.52
714.00	2222.93
715.00	2219.26
716.00	2218.10
717.00	2217.80
718.00	2214.40
719.00	2207.05
720.00	2200.61
721.00	2199.56
722.00	2199.47
723.00	2199.51
724.00	2198.14
725.00	2194.26
726.00	2190.50
727.00	2185.39
728.00	2182.58
729.00	2179.44
730.00	2174.78
731.00	2166.60
732.00	2158.07
733.00	2150.72
734.00	2141.69
735.00	2131.71
736.00	2123.37
737.00	2112.67
738.00	2101.36
739.00	2090.37
740.00	2080.81
741.00	2072.08
742.00	2059.21
743.00	2044.72
744.00	2031.58
745.00	2016.79
746.00	2003.40
747.00	1993.32
748.00	1987.63
749.00	1978.49
750.00	1968.73
751.00	1960.38
752.00	1956.41
753.00	1956.29
754.00	1957.02
755.00	1966.05
756.00	1975.28
757.00	1982.50
758.00	1994.62
759.00	2011.92
760.00	2028.25
761.00	2045.13
762.00	2061.76
763.00	2079.27
764.00	2096.83
765.00	2113.30
766.00	2130.87
767.00	2146.85
768.00	2157.86
769.00	2166.02
770.00	2176.57
771.00	2189.44
772.00	2198.18
773.00	2205.55
774.00	2208.06
775.00	2207.01
776.00	2200.41
777.00	2191.82
778.00	2185.49
779.00	2175.10
780.00	2157.01
781.00	2140.03
782.00	2118.56
783.00	2097.28
784.00	2081.63
785.00	2062.46
786.00	2040.18
787.00	2017.08
788.00	1994.59
789.00	1972.60
790.00	1949.15
791.00	1927.64
792.00	1903.35
793.00	1880.73
794.00	1859.17
795.00	1839.79
796.00	1825.09
797.00	1807.45
798.00	1791.53
799.00	1773.52
800.00	1754.94
801.00	1740.21
802.00	1724.01
803.00	1710.19
804.00	1695.77
805.00	1674.13
806.00	1657.38
807.00	1644.78
808.00	1632.00
809.00	1618.78
810.00	1608.71
811.00	1597.83
812.00	1586.39
813.00	1575.65
814.00	1563.93
815.00	1553.17
816.00	1543.61
817.00	1531.96
818.00	1518.97
819.00	1506.14
820.00	1493.54
821.00	1480.30
822.00	1467.38
823.00	1455.40
824.00	1441.86
825.00	1427.85
826.00	1415.03
827.00	1401.82
828.00	1387.59
829.00	1374.91
830.00	1362.60
831.00	1347.52
832.00	1334.33
833.00	1321.86
834.00	1309.19
835.00	1297.12
836.00	1284.38
837.00	1270.82
838.00	1255.90
839.00	1243.85
840.00	1232.57
841.00	1218.29
842.00	1207.59
843.00	1200.65
844.00	1191.65
845.00	1181.39
846.00	1168.26
847.00	1164.97
848.00	1152.76
849.00	1138.97
850.00	1128.53
>>>>>End Processed Spectral Data<<<<<
